Created as New Dataset,Sample 037 By Gonçalo Guedes Date Monday, June 19 2023
nm,A
1000.0,0.4428
1000.5,0.4398
1001.0,0.4384
1001.5,0.4389
1002.0,0.4407
1002.5,0.4428
1003.0,0.4447
1003.5,0.4463
1004.0,0.4473
1004.5,0.4465
1005.0,0.4438
1005.5,0.4412
1006.0,0.4413
1006.5,0.4451
1007.0,0.4501
1007.5,0.4526
1008.0,0.4511
1008.5,0.4464
1009.0,0.4404
1009.5,0.4355
1010.0,0.4336
1010.5,0.4343
1011.0,0.4353
1011.5,0.4356
1012.0,0.4360
1012.5,0.4380
1013.0,0.4425
1013.5,0.4470
1014.0,0.4475
1014.5,0.4441
1015.0,0.4413
1015.5,0.4413
1016.0,0.4428
1016.5,0.4448
1017.0,0.4471
1017.5,0.4483
1018.0,0.4476
1018.5,0.4457
1019.0,0.4437
1019.5,0.4420
1020.0,0.4413
1020.5,0.4415
1021.0,0.4418
1021.5,0.4412
1022.0,0.4405
1022.5,0.4413
1023.0,0.4440
1023.5,0.4468
1024.0,0.4467
1024.5,0.4439
1025.0,0.4409
1025.5,0.4384
1026.0,0.4356
1026.5,0.4342
1027.0,0.4363
1027.5,0.4399
1028.0,0.4409
1028.5,0.4390
1029.0,0.4374
1029.5,0.4374
1030.0,0.4388
1030.5,0.4409
1031.0,0.4419
1031.5,0.4404
1032.0,0.4378
1032.5,0.4373
1033.0,0.4388
1033.5,0.4396
1034.0,0.4387
1034.5,0.4381
1035.0,0.4386
1035.5,0.4396
1036.0,0.4404
1036.5,0.4405
1037.0,0.4394
1037.5,0.4374
1038.0,0.4361
1038.5,0.4373
1039.0,0.4409
1039.5,0.4446
1040.0,0.4460
1040.5,0.4441
1041.0,0.4406
1041.5,0.4383
1042.0,0.4384
1042.5,0.4391
1043.0,0.4382
1043.5,0.4354
1044.0,0.4320
1044.5,0.4295
1045.0,0.4291
1045.5,0.4309
1046.0,0.4340
1046.5,0.4365
1047.0,0.4375
1047.5,0.4371
1048.0,0.4363
1048.5,0.4358
1049.0,0.4350
1049.5,0.4334
1050.0,0.4316
1050.5,0.4309
1051.0,0.4318
1051.5,0.4337
1052.0,0.4355
1052.5,0.4368
1053.0,0.4371
1053.5,0.4364
1054.0,0.4357
1054.5,0.4353
1055.0,0.4347
1055.5,0.4338
1056.0,0.4335
1056.5,0.4344
1057.0,0.4356
1057.5,0.4356
1058.0,0.4342
1058.5,0.4326
1059.0,0.4316
1059.5,0.4307
1060.0,0.4290
1060.5,0.4270
1061.0,0.4263
1061.5,0.4273
1062.0,0.4285
1062.5,0.4289
1063.0,0.4284
1063.5,0.4278
1064.0,0.4271
1064.5,0.4267
1065.0,0.4270
1065.5,0.4282
1066.0,0.4297
1066.5,0.4306
1067.0,0.4307
1067.5,0.4304
1068.0,0.4304
1068.5,0.4307
1069.0,0.4308
1069.5,0.4303
1070.0,0.4291
1070.5,0.4279
1071.0,0.4272
1071.5,0.4271
1072.0,0.4276
1072.5,0.4278
1073.0,0.4268
1073.5,0.4254
1074.0,0.4249
1074.5,0.4253
1075.0,0.4252
1075.5,0.4242
1076.0,0.4235
1076.5,0.4242
1077.0,0.4258
1077.5,0.4273
1078.0,0.4281
1078.5,0.4278
1079.0,0.4266
1079.5,0.4250
1080.0,0.4240
1080.5,0.4242
1081.0,0.4251
1081.5,0.4260
1082.0,0.4263
1082.5,0.4259
1083.0,0.4255
1083.5,0.4258
1084.0,0.4272
1084.5,0.4287
1085.0,0.4296
1085.5,0.4294
1086.0,0.4288
1086.5,0.4278
1087.0,0.4265
1087.5,0.4254
1088.0,0.4249
1088.5,0.4253
1089.0,0.4261
1089.5,0.4266
1090.0,0.4267
1090.5,0.4264
1091.0,0.4263
1091.5,0.4264
1092.0,0.4265
1092.5,0.4263
1093.0,0.4259
1093.5,0.4257
1094.0,0.4260
1094.5,0.4264
1095.0,0.4265
1095.5,0.4258
1096.0,0.4250
1096.5,0.4247
1097.0,0.4253
1097.5,0.4262
1098.0,0.4266
1098.5,0.4265
1099.0,0.4261
1099.5,0.4259
1100.0,0.4262
1100.5,0.4269
1101.0,0.4278
1101.5,0.4281
1102.0,0.4280
1102.5,0.4275
1103.0,0.4269
1103.5,0.4261
1104.0,0.4252
1104.5,0.4245
1105.0,0.4241
1105.5,0.4241
1106.0,0.4244
1106.5,0.4253
1107.0,0.4263
1107.5,0.4271
1108.0,0.4272
1108.5,0.4268
1109.0,0.4263
1109.5,0.4260
1110.0,0.4259
1110.5,0.4260
1111.0,0.4264
1111.5,0.4267
1112.0,0.4267
1112.5,0.4264
1113.0,0.4261
1113.5,0.4260
1114.0,0.4261
1114.5,0.4264
1115.0,0.4264
1115.5,0.4259
1116.0,0.4249
1116.5,0.4243
1117.0,0.4244
1117.5,0.4250
1118.0,0.4253
1118.5,0.4251
1119.0,0.4248
1119.5,0.4248
1120.0,0.4251
1120.5,0.4253
1121.0,0.4253
1121.5,0.4252
1122.0,0.4252
1122.5,0.4253
1123.0,0.4253
1123.5,0.4252
1124.0,0.4252
1124.5,0.4254
1125.0,0.4256
1125.5,0.4256
1126.0,0.4256
1126.5,0.4259
1127.0,0.4265
1127.5,0.4274
1128.0,0.4282
1128.5,0.4289
1129.0,0.4293
1129.5,0.4295
1130.0,0.4296
1130.5,0.4297
1131.0,0.4299
1131.5,0.4299
1132.0,0.4297
1132.5,0.4294
1133.0,0.4294
1133.5,0.4297
1134.0,0.4304
1134.5,0.4312
1135.0,0.4322
1135.5,0.4330
1136.0,0.4337
1136.5,0.4341
1137.0,0.4345
1137.5,0.4351
1138.0,0.4359
1138.5,0.4367
1139.0,0.4374
1139.5,0.4380
1140.0,0.4389
1140.5,0.4397
1141.0,0.4402
1141.5,0.4401
1142.0,0.4398
1142.5,0.4396
1143.0,0.4398
1143.5,0.4401
1144.0,0.4404
1144.5,0.4406
1145.0,0.4410
1145.5,0.4420
1146.0,0.4437
1146.5,0.4456
1147.0,0.4475
1147.5,0.4490
1148.0,0.4500
1148.5,0.4506
1149.0,0.4510
1149.5,0.4514
1150.0,0.4520
1150.5,0.4528
1151.0,0.4535
1151.5,0.4542
1152.0,0.4547
1152.5,0.4555
1153.0,0.4565
1153.5,0.4577
1154.0,0.4588
1154.5,0.4597
1155.0,0.4600
1155.5,0.4600
1156.0,0.4598
1156.5,0.4599
1157.0,0.4605
1157.5,0.4618
1158.0,0.4637
1158.5,0.4657
1159.0,0.4673
1159.5,0.4684
1160.0,0.4691
1160.5,0.4698
1161.0,0.4705
1161.5,0.4714
1162.0,0.4726
1162.5,0.4740
1163.0,0.4754
1163.5,0.4767
1164.0,0.4777
1164.5,0.4785
1165.0,0.4793
1165.5,0.4804
1166.0,0.4814
1166.5,0.4822
1167.0,0.4827
1167.5,0.4831
1168.0,0.4836
1168.5,0.4843
1169.0,0.4853
1169.5,0.4863
1170.0,0.4872
1170.5,0.4876
1171.0,0.4873
1171.5,0.4865
1172.0,0.4859
1172.5,0.4858
1173.0,0.4864
1173.5,0.4875
1174.0,0.4889
1174.5,0.4904
1175.0,0.4920
1175.5,0.4932
1176.0,0.4938
1176.5,0.4940
1177.0,0.4943
1177.5,0.4952
1178.0,0.4964
1178.5,0.4976
1179.0,0.4985
1179.5,0.4995
1180.0,0.5006
1180.5,0.5018
1181.0,0.5028
1181.5,0.5036
1182.0,0.5043
1182.5,0.5051
1183.0,0.5063
1183.5,0.5078
1184.0,0.5094
1184.5,0.5110
1185.0,0.5124
1185.5,0.5136
1186.0,0.5146
1186.5,0.5156
1187.0,0.5165
1187.5,0.5173
1188.0,0.5179
1188.5,0.5188
1189.0,0.5201
1189.5,0.5218
1190.0,0.5233
1190.5,0.5243
1191.0,0.5246
1191.5,0.5246
1192.0,0.5246
1192.5,0.5249
1193.0,0.5254
1193.5,0.5257
1194.0,0.5260
1194.5,0.5263
1195.0,0.5270
1195.5,0.5280
1196.0,0.5292
1196.5,0.5302
1197.0,0.5310
1197.5,0.5318
1198.0,0.5328
1198.5,0.5338
1199.0,0.5347
1199.5,0.5352
1200.0,0.5355
1200.5,0.5356
1201.0,0.5359
1201.5,0.5363
1202.0,0.5367
1202.5,0.5372
1203.0,0.5379
1203.5,0.5388
1204.0,0.5398
1204.5,0.5409
1205.0,0.5418
1205.5,0.5428
1206.0,0.5437
1206.5,0.5446
1207.0,0.5456
1207.5,0.5464
1208.0,0.5469
1208.5,0.5470
1209.0,0.5469
1209.5,0.5466
1210.0,0.5464
1210.5,0.5463
1211.0,0.5460
1211.5,0.5456
1212.0,0.5451
1212.5,0.5446
1213.0,0.5441
1213.5,0.5439
1214.0,0.5438
1214.5,0.5436
1215.0,0.5432
1215.5,0.5424
1216.0,0.5413
1216.5,0.5399
1217.0,0.5386
1217.5,0.5372
1218.0,0.5358
1218.5,0.5345
1219.0,0.5333
1219.5,0.5321
1220.0,0.5308
1220.5,0.5293
1221.0,0.5277
1221.5,0.5260
1222.0,0.5242
1222.5,0.5224
1223.0,0.5205
1223.5,0.5185
1224.0,0.5164
1224.5,0.5144
1225.0,0.5125
1225.5,0.5109
1226.0,0.5097
1226.5,0.5088
1227.0,0.5079
1227.5,0.5068
1228.0,0.5052
1228.5,0.5034
1229.0,0.5015
1229.5,0.4998
1230.0,0.4984
1230.5,0.4972
1231.0,0.4961
1231.5,0.4952
1232.0,0.4945
1232.5,0.4940
1233.0,0.4934
1233.5,0.4927
1234.0,0.4919
1234.5,0.4909
1235.0,0.4900
1235.5,0.4891
1236.0,0.4882
1236.5,0.4872
1237.0,0.4862
1237.5,0.4852
1238.0,0.4843
1238.5,0.4836
1239.0,0.4830
1239.5,0.4822
1240.0,0.4814
1240.5,0.4805
1241.0,0.4797
1241.5,0.4789
1242.0,0.4783
1242.5,0.4777
1243.0,0.4772
1243.5,0.4767
1244.0,0.4763
1244.5,0.4759
1245.0,0.4754
1245.5,0.4748
1246.0,0.4743
1246.5,0.4737
1247.0,0.4733
1247.5,0.4729
1248.0,0.4725
1248.5,0.4722
1249.0,0.4718
1249.5,0.4713
1250.0,0.4707
1250.5,0.4703
1251.0,0.4700
1251.5,0.4698
1252.0,0.4697
1252.5,0.4696
1253.0,0.4693
1253.5,0.4689
1254.0,0.4684
1254.5,0.4679
1255.0,0.4673
1255.5,0.4668
1256.0,0.4664
1256.5,0.4661
1257.0,0.4659
1257.5,0.4659
1258.0,0.4659
1258.5,0.4660
1259.0,0.4661
1259.5,0.4661
1260.0,0.4659
1260.5,0.4656
1261.0,0.4651
1261.5,0.4646
1262.0,0.4641
1262.5,0.4637
1263.0,0.4632
1263.5,0.4628
1264.0,0.4625
1264.5,0.4624
1265.0,0.4623
1265.5,0.4622
1266.0,0.4620
1266.5,0.4617
1267.0,0.4614
1267.5,0.4612
1268.0,0.4611
1268.5,0.4612
1269.0,0.4614
1269.5,0.4616
1270.0,0.4617
1270.5,0.4617
1271.0,0.4615
1271.5,0.4611
1272.0,0.4606
1272.5,0.4601
1273.0,0.4596
1273.5,0.4593
1274.0,0.4589
1274.5,0.4586
1275.0,0.4582
1275.5,0.4578
1276.0,0.4574
1276.5,0.4571
1277.0,0.4569
1277.5,0.4568
1278.0,0.4568
1278.5,0.4568
1279.0,0.4569
1279.5,0.4571
1280.0,0.4573
1280.5,0.4573
1281.0,0.4571
1281.5,0.4568
1282.0,0.4565
1282.5,0.4562
1283.0,0.4559
1283.5,0.4557
1284.0,0.4555
1284.5,0.4552
1285.0,0.4550
1285.5,0.4549
1286.0,0.4549
1286.5,0.4549
1287.0,0.4547
1287.5,0.4544
1288.0,0.4541
1288.5,0.4537
1289.0,0.4535
1289.5,0.4533
1290.0,0.4531
1290.5,0.4528
1291.0,0.4524
1291.5,0.4519
1292.0,0.4515
1292.5,0.4513
1293.0,0.4511
1293.5,0.4511
1294.0,0.4509
1294.5,0.4507
1295.0,0.4505
1295.5,0.4504
1296.0,0.4503
1296.5,0.4503
1297.0,0.4501
1297.5,0.4499
1298.0,0.4496
1298.5,0.4494
1299.0,0.4493
1299.5,0.4494
1300.0,0.4494
1300.5,0.4494
1301.0,0.4492
1301.5,0.4488
1302.0,0.4483
1302.5,0.4478
1303.0,0.4474
1303.5,0.4471
1304.0,0.4469
1304.5,0.4469
1305.0,0.4470
1305.5,0.4471
1306.0,0.4473
1306.5,0.4475
1307.0,0.4475
1307.5,0.4474
1308.0,0.4472
1308.5,0.4470
1309.0,0.4468
1309.5,0.4467
1310.0,0.4468
1310.5,0.4469
1311.0,0.4470
1311.5,0.4470
1312.0,0.4469
1312.5,0.4467
1313.0,0.4465
1313.5,0.4464
1314.0,0.4464
1314.5,0.4463
1315.0,0.4463
1315.5,0.4462
1316.0,0.4461
1316.5,0.4459
1317.0,0.4458
1317.5,0.4458
1318.0,0.4460
1318.5,0.4461
1319.0,0.4463
1319.5,0.4463
1320.0,0.4462
1320.5,0.4460
1321.0,0.4461
1321.5,0.4463
1322.0,0.4467
1322.5,0.4472
1323.0,0.4476
1323.5,0.4478
1324.0,0.4478
1324.5,0.4476
1325.0,0.4473
1325.5,0.4470
1326.0,0.4469
1326.5,0.4470
1327.0,0.4474
1327.5,0.4479
1328.0,0.4484
1328.5,0.4489
1329.0,0.4494
1329.5,0.4499
1330.0,0.4503
1330.5,0.4506
1331.0,0.4507
1331.5,0.4507
1332.0,0.4505
1332.5,0.4505
1333.0,0.4506
1333.5,0.4508
1334.0,0.4511
1334.5,0.4514
1335.0,0.4518
1335.5,0.4522
1336.0,0.4526
1336.5,0.4529
1337.0,0.4533
1337.5,0.4538
1338.0,0.4543
1338.5,0.4549
1339.0,0.4557
1339.5,0.4564
1340.0,0.4571
1340.5,0.4576
1341.0,0.4581
1341.5,0.4585
1342.0,0.4589
1342.5,0.4592
1343.0,0.4595
1343.5,0.4598
1344.0,0.4602
1344.5,0.4607
1345.0,0.4613
1345.5,0.4620
1346.0,0.4627
1346.5,0.4635
1347.0,0.4644
1347.5,0.4652
1348.0,0.4660
1348.5,0.4668
1349.0,0.4676
1349.5,0.4683
1350.0,0.4690
1350.5,0.4698
1351.0,0.4705
1351.5,0.4713
1352.0,0.4722
1352.5,0.4731
1353.0,0.4742
1353.5,0.4754
1354.0,0.4766
1354.5,0.4777
1355.0,0.4788
1355.5,0.4797
1356.0,0.4805
1356.5,0.4814
1357.0,0.4822
1357.5,0.4831
1358.0,0.4840
1358.5,0.4850
1359.0,0.4861
1359.5,0.4871
1360.0,0.4882
1360.5,0.4892
1361.0,0.4902
1361.5,0.4911
1362.0,0.4919
1362.5,0.4927
1363.0,0.4934
1363.5,0.4942
1364.0,0.4950
1364.5,0.4959
1365.0,0.4967
1365.5,0.4976
1366.0,0.4984
1366.5,0.4992
1367.0,0.5001
1367.5,0.5010
1368.0,0.5018
1368.5,0.5025
1369.0,0.5032
1369.5,0.5038
1370.0,0.5044
1370.5,0.5051
1371.0,0.5058
1371.5,0.5066
1372.0,0.5074
1372.5,0.5082
1373.0,0.5090
1373.5,0.5099
1374.0,0.5108
1374.5,0.5117
1375.0,0.5125
1375.5,0.5132
1376.0,0.5138
1376.5,0.5145
1377.0,0.5152
1377.5,0.5159
1378.0,0.5168
1378.5,0.5178
1379.0,0.5188
1379.5,0.5199
1380.0,0.5210
1380.5,0.5221
1381.0,0.5230
1381.5,0.5239
1382.0,0.5248
1382.5,0.5257
1383.0,0.5266
1383.5,0.5276
1384.0,0.5286
1384.5,0.5298
1385.0,0.5310
1385.5,0.5323
1386.0,0.5336
1386.5,0.5351
1387.0,0.5365
1387.5,0.5379
1388.0,0.5393
1388.5,0.5405
1389.0,0.5417
1389.5,0.5429
1390.0,0.5439
1390.5,0.5449
1391.0,0.5458
1391.5,0.5465
1392.0,0.5472
1392.5,0.5478
1393.0,0.5483
1393.5,0.5487
1394.0,0.5490
1394.5,0.5491
1395.0,0.5492
1395.5,0.5491
1396.0,0.5490
1396.5,0.5488
1397.0,0.5486
1397.5,0.5486
1398.0,0.5487
1398.5,0.5491
1399.0,0.5496
1399.5,0.5503
1400.0,0.5512
1400.5,0.5521
1401.0,0.5531
1401.5,0.5541
1402.0,0.5552
1402.5,0.5563
1403.0,0.5575
1403.5,0.5588
1404.0,0.5602
1404.5,0.5617
1405.0,0.5634
1405.5,0.5652
1406.0,0.5671
1406.5,0.5690
1407.0,0.5708
1407.5,0.5726
1408.0,0.5744
1408.5,0.5762
1409.0,0.5782
1409.5,0.5802
1410.0,0.5825
1410.5,0.5847
1411.0,0.5870
1411.5,0.5893
1412.0,0.5914
1412.5,0.5935
1413.0,0.5956
1413.5,0.5977
1414.0,0.5997
1414.5,0.6016
1415.0,0.6035
1415.5,0.6052
1416.0,0.6069
1416.5,0.6086
1417.0,0.6103
1417.5,0.6120
1418.0,0.6139
1418.5,0.6158
1419.0,0.6178
1419.5,0.6199
1420.0,0.6220
1420.5,0.6243
1421.0,0.6267
1421.5,0.6291
1422.0,0.6315
1422.5,0.6339
1423.0,0.6363
1423.5,0.6387
1424.0,0.6410
1424.5,0.6432
1425.0,0.6454
1425.5,0.6474
1426.0,0.6494
1426.5,0.6513
1427.0,0.6531
1427.5,0.6550
1428.0,0.6569
1428.5,0.6588
1429.0,0.6609
1429.5,0.6630
1430.0,0.6652
1430.5,0.6673
1431.0,0.6693
1431.5,0.6711
1432.0,0.6729
1432.5,0.6746
1433.0,0.6764
1433.5,0.6782
1434.0,0.6801
1434.5,0.6819
1435.0,0.6837
1435.5,0.6854
1436.0,0.6871
1436.5,0.6888
1437.0,0.6905
1437.5,0.6921
1438.0,0.6938
1438.5,0.6954
1439.0,0.6969
1439.5,0.6984
1440.0,0.6998
1440.5,0.7011
1441.0,0.7024
1441.5,0.7035
1442.0,0.7045
1442.5,0.7054
1443.0,0.7062
1443.5,0.7070
1444.0,0.7078
1444.5,0.7087
1445.0,0.7096
1445.5,0.7107
1446.0,0.7117
1446.5,0.7128
1447.0,0.7139
1447.5,0.7148
1448.0,0.7155
1448.5,0.7161
1449.0,0.7165
1449.5,0.7170
1450.0,0.7176
1450.5,0.7183
1451.0,0.7190
1451.5,0.7198
1452.0,0.7206
1452.5,0.7214
1453.0,0.7223
1453.5,0.7231
1454.0,0.7238
1454.5,0.7244
1455.0,0.7249
1455.5,0.7253
1456.0,0.7257
1456.5,0.7260
1457.0,0.7264
1457.5,0.7268
1458.0,0.7272
1458.5,0.7276
1459.0,0.7279
1459.5,0.7281
1460.0,0.7283
1460.5,0.7286
1461.0,0.7289
1461.5,0.7292
1462.0,0.7296
1462.5,0.7299
1463.0,0.7303
1463.5,0.7306
1464.0,0.7308
1464.5,0.7311
1465.0,0.7313
1465.5,0.7314
1466.0,0.7314
1466.5,0.7315
1467.0,0.7315
1467.5,0.7316
1468.0,0.7317
1468.5,0.7318
1469.0,0.7319
1469.5,0.7320
1470.0,0.7320
1470.5,0.7321
1471.0,0.7321
1471.5,0.7321
1472.0,0.7321
1472.5,0.7321
1473.0,0.7322
1473.5,0.7322
1474.0,0.7323
1474.5,0.7324
1475.0,0.7325
1475.5,0.7325
1476.0,0.7325
1476.5,0.7325
1477.0,0.7323
1477.5,0.7321
1478.0,0.7319
1478.5,0.7316
1479.0,0.7314
1479.5,0.7313
1480.0,0.7312
1480.5,0.7312
1481.0,0.7313
1481.5,0.7315
1482.0,0.7318
1482.5,0.7320
1483.0,0.7322
1483.5,0.7323
1484.0,0.7324
1484.5,0.7324
1485.0,0.7324
1485.5,0.7323
1486.0,0.7322
1486.5,0.7321
1487.0,0.7319
1487.5,0.7317
1488.0,0.7315
1488.5,0.7314
1489.0,0.7312
1489.5,0.7311
1490.0,0.7309
1490.5,0.7308
1491.0,0.7306
1491.5,0.7303
1492.0,0.7301
1492.5,0.7298
1493.0,0.7294
1493.5,0.7291
1494.0,0.7288
1494.5,0.7285
1495.0,0.7283
1495.5,0.7281
1496.0,0.7280
1496.5,0.7278
1497.0,0.7276
1497.5,0.7274
1498.0,0.7271
1498.5,0.7268
1499.0,0.7266
1499.5,0.7264
1500.0,0.7262
1500.5,0.7261
1501.0,0.7260
1501.5,0.7258
1502.0,0.7256
1502.5,0.7253
1503.0,0.7250
1503.5,0.7246
1504.0,0.7242
1504.5,0.7237
1505.0,0.7232
1505.5,0.7226
1506.0,0.7221
1506.5,0.7216
1507.0,0.7212
1507.5,0.7208
1508.0,0.7204
1508.5,0.7201
1509.0,0.7197
1509.5,0.7192
1510.0,0.7188
1510.5,0.7183
1511.0,0.7179
1511.5,0.7175
1512.0,0.7171
1512.5,0.7169
1513.0,0.7166
1513.5,0.7163
1514.0,0.7160
1514.5,0.7156
1515.0,0.7152
1515.5,0.7147
1516.0,0.7142
1516.5,0.7137
1517.0,0.7132
1517.5,0.7127
1518.0,0.7122
1518.5,0.7118
1519.0,0.7113
1519.5,0.7110
1520.0,0.7106
1520.5,0.7103
1521.0,0.7100
1521.5,0.7097
1522.0,0.7094
1522.5,0.7090
1523.0,0.7087
1523.5,0.7083
1524.0,0.7080
1524.5,0.7077
1525.0,0.7073
1525.5,0.7069
1526.0,0.7064
1526.5,0.7060
1527.0,0.7055
1527.5,0.7051
1528.0,0.7048
1528.5,0.7046
1529.0,0.7044
1529.5,0.7041
1530.0,0.7039
1530.5,0.7036
1531.0,0.7033
1531.5,0.7029
1532.0,0.7025
1532.5,0.7022
1533.0,0.7019
1533.5,0.7017
1534.0,0.7015
1534.5,0.7014
1535.0,0.7013
1535.5,0.7012
1536.0,0.7010
1536.5,0.7008
1537.0,0.7005
1537.5,0.7001
1538.0,0.6997
1538.5,0.6992
1539.0,0.6988
1539.5,0.6984
1540.0,0.6981
1540.5,0.6980
1541.0,0.6979
1541.5,0.6979
1542.0,0.6979
1542.5,0.6979
1543.0,0.6978
1543.5,0.6977
1544.0,0.6976
1544.5,0.6974
1545.0,0.6972
1545.5,0.6970
1546.0,0.6968
1546.5,0.6966
1547.0,0.6964
1547.5,0.6962
1548.0,0.6960
1548.5,0.6957
1549.0,0.6955
1549.5,0.6952
1550.0,0.6950
1550.5,0.6948
1551.0,0.6947
1551.5,0.6947
1552.0,0.6948
1552.5,0.6949
1553.0,0.6950
1553.5,0.6951
1554.0,0.6952
1554.5,0.6953
1555.0,0.6953
1555.5,0.6953
1556.0,0.6953
1556.5,0.6952
1557.0,0.6952
1557.5,0.6951
1558.0,0.6951
1558.5,0.6951
1559.0,0.6951
1559.5,0.6951
1560.0,0.6952
1560.5,0.6952
1561.0,0.6952
1561.5,0.6952
1562.0,0.6952
1562.5,0.6952
1563.0,0.6951
1563.5,0.6951
1564.0,0.6951
1564.5,0.6951
1565.0,0.6952
1565.5,0.6953
1566.0,0.6955
1566.5,0.6956
1567.0,0.6957
1567.5,0.6957
1568.0,0.6956
1568.5,0.6955
1569.0,0.6954
1569.5,0.6952
1570.0,0.6951
1570.5,0.6950
1571.0,0.6950
1571.5,0.6950
1572.0,0.6951
1572.5,0.6951
1573.0,0.6952
1573.5,0.6952
1574.0,0.6953
1574.5,0.6953
1575.0,0.6953
1575.5,0.6953
1576.0,0.6952
1576.5,0.6951
1577.0,0.6950
1577.5,0.6948
1578.0,0.6946
1578.5,0.6944
1579.0,0.6942
1579.5,0.6939
1580.0,0.6937
1580.5,0.6934
1581.0,0.6931
1581.5,0.6929
1582.0,0.6927
1582.5,0.6926
1583.0,0.6924
1583.5,0.6922
1584.0,0.6920
1584.5,0.6917
1585.0,0.6914
1585.5,0.6911
1586.0,0.6907
1586.5,0.6904
1587.0,0.6901
1587.5,0.6898
1588.0,0.6895
1588.5,0.6892
1589.0,0.6889
1589.5,0.6885
1590.0,0.6882
1590.5,0.6878
1591.0,0.6874
1591.5,0.6869
1592.0,0.6865
1592.5,0.6860
1593.0,0.6856
1593.5,0.6852
1594.0,0.6848
1594.5,0.6845
1595.0,0.6842
1595.5,0.6838
1596.0,0.6835
1596.5,0.6831
1597.0,0.6827
1597.5,0.6823
1598.0,0.6819
1598.5,0.6815
1599.0,0.6810
1599.5,0.6806
1600.0,0.6801
1600.5,0.6797
1601.0,0.6792
1601.5,0.6788
1602.0,0.6784
1602.5,0.6779
1603.0,0.6775
1603.5,0.6770
1604.0,0.6765
1604.5,0.6760
1605.0,0.6755
1605.5,0.6750
1606.0,0.6744
1606.5,0.6739
1607.0,0.6733
1607.5,0.6728
1608.0,0.6723
1608.5,0.6718
1609.0,0.6714
1609.5,0.6709
1610.0,0.6704
1610.5,0.6700
1611.0,0.6696
1611.5,0.6691
1612.0,0.6687
1612.5,0.6683
1613.0,0.6679
1613.5,0.6676
1614.0,0.6672
1614.5,0.6668
1615.0,0.6663
1615.5,0.6659
1616.0,0.6654
1616.5,0.6648
1617.0,0.6642
1617.5,0.6637
1618.0,0.6631
1618.5,0.6626
1619.0,0.6621
1619.5,0.6616
1620.0,0.6612
1620.5,0.6607
1621.0,0.6603
1621.5,0.6598
1622.0,0.6594
1622.5,0.6589
1623.0,0.6584
1623.5,0.6580
1624.0,0.6575
1624.5,0.6571
1625.0,0.6566
1625.5,0.6561
1626.0,0.6556
1626.5,0.6551
1627.0,0.6546
1627.5,0.6541
1628.0,0.6537
1628.5,0.6533
1629.0,0.6530
1629.5,0.6526
1630.0,0.6523
1630.5,0.6519
1631.0,0.6516
1631.5,0.6513
1632.0,0.6509
1632.5,0.6506
1633.0,0.6502
1633.5,0.6499
1634.0,0.6495
1634.5,0.6491
1635.0,0.6487
1635.5,0.6483
1636.0,0.6479
1636.5,0.6475
1637.0,0.6471
1637.5,0.6468
1638.0,0.6464
1638.5,0.6461
1639.0,0.6458
1639.5,0.6455
1640.0,0.6452
1640.5,0.6449
1641.0,0.6446
1641.5,0.6443
1642.0,0.6439
1642.5,0.6436
1643.0,0.6433
1643.5,0.6430
1644.0,0.6427
1644.5,0.6424
1645.0,0.6421
1645.5,0.6419
1646.0,0.6416
1646.5,0.6412
1647.0,0.6409
1647.5,0.6405
1648.0,0.6401
1648.5,0.6397
1649.0,0.6394
1649.5,0.6390
1650.0,0.6387
1650.5,0.6385
1651.0,0.6382
1651.5,0.6380
1652.0,0.6379
1652.5,0.6378
1653.0,0.6377
1653.5,0.6376
1654.0,0.6375
1654.5,0.6375
1655.0,0.6375
1655.5,0.6375
1656.0,0.6375
1656.5,0.6375
1657.0,0.6375
1657.5,0.6375
1658.0,0.6376
1658.5,0.6377
1659.0,0.6377
1659.5,0.6379
1660.0,0.6381
1660.5,0.6383
1661.0,0.6385
1661.5,0.6388
1662.0,0.6392
1662.5,0.6395
1663.0,0.6398
1663.5,0.6402
1664.0,0.6404
1664.5,0.6407
1665.0,0.6410
1665.5,0.6412
1666.0,0.6415
1666.5,0.6417
1667.0,0.6420
1667.5,0.6423
1668.0,0.6426
1668.5,0.6429
1669.0,0.6432
1669.5,0.6436
1670.0,0.6439
1670.5,0.6444
1671.0,0.6448
1671.5,0.6453
1672.0,0.6459
1672.5,0.6465
1673.0,0.6471
1673.5,0.6478
1674.0,0.6485
1674.5,0.6492
1675.0,0.6500
1675.5,0.6508
1676.0,0.6516
1676.5,0.6526
1677.0,0.6536
1677.5,0.6547
1678.0,0.6559
1678.5,0.6571
1679.0,0.6583
1679.5,0.6596
1680.0,0.6609
1680.5,0.6622
1681.0,0.6636
1681.5,0.6650
1682.0,0.6665
1682.5,0.6680
1683.0,0.6696
1683.5,0.6712
1684.0,0.6729
1684.5,0.6747
1685.0,0.6766
1685.5,0.6785
1686.0,0.6805
1686.5,0.6825
1687.0,0.6846
1687.5,0.6868
1688.0,0.6890
1688.5,0.6913
1689.0,0.6936
1689.5,0.6960
1690.0,0.6984
1690.5,0.7008
1691.0,0.7031
1691.5,0.7054
1692.0,0.7075
1692.5,0.7095
1693.0,0.7114
1693.5,0.7131
1694.0,0.7147
1694.5,0.7163
1695.0,0.7178
1695.5,0.7193
1696.0,0.7208
1696.5,0.7224
1697.0,0.7242
1697.5,0.7261
1698.0,0.7281
1698.5,0.7304
1699.0,0.7328
1699.5,0.7353
1700.0,0.7380
1700.5,0.7408
1701.0,0.7436
1701.5,0.7465
1702.0,0.7493
1702.5,0.7521
1703.0,0.7548
1703.5,0.7575
1704.0,0.7600
1704.5,0.7624
1705.0,0.7648
1705.5,0.7670
1706.0,0.7691
1706.5,0.7712
1707.0,0.7731
1707.5,0.7750
1708.0,0.7768
1708.5,0.7785
1709.0,0.7802
1709.5,0.7818
1710.0,0.7834
1710.5,0.7850
1711.0,0.7865
1711.5,0.7881
1712.0,0.7897
1712.5,0.7913
1713.0,0.7929
1713.5,0.7945
1714.0,0.7961
1714.5,0.7977
1715.0,0.7993
1715.5,0.8008
1716.0,0.8023
1716.5,0.8038
1717.0,0.8054
1717.5,0.8069
1718.0,0.8084
1718.5,0.8099
1719.0,0.8114
1719.5,0.8130
1720.0,0.8145
1720.5,0.8160
1721.0,0.8175
1721.5,0.8191
1722.0,0.8206
1722.5,0.8221
1723.0,0.8236
1723.5,0.8251
1724.0,0.8266
1724.5,0.8280
1725.0,0.8294
1725.5,0.8306
1726.0,0.8318
1726.5,0.8328
1727.0,0.8337
1727.5,0.8343
1728.0,0.8347
1728.5,0.8347
1729.0,0.8345
1729.5,0.8338
1730.0,0.8327
1730.5,0.8311
1731.0,0.8292
1731.5,0.8269
1732.0,0.8243
1732.5,0.8214
1733.0,0.8183
1733.5,0.8151
1734.0,0.8117
1734.5,0.8084
1735.0,0.8051
1735.5,0.8019
1736.0,0.7988
1736.5,0.7958
1737.0,0.7929
1737.5,0.7902
1738.0,0.7877
1738.5,0.7853
1739.0,0.7831
1739.5,0.7810
1740.0,0.7792
1740.5,0.7775
1741.0,0.7760
1741.5,0.7747
1742.0,0.7737
1742.5,0.7727
1743.0,0.7719
1743.5,0.7713
1744.0,0.7708
1744.5,0.7705
1745.0,0.7702
1745.5,0.7702
1746.0,0.7702
1746.5,0.7704
1747.0,0.7706
1747.5,0.7710
1748.0,0.7715
1748.5,0.7721
1749.0,0.7727
1749.5,0.7734
1750.0,0.7741
1750.5,0.7748
1751.0,0.7756
1751.5,0.7765
1752.0,0.7773
1752.5,0.7782
1753.0,0.7791
1753.5,0.7800
1754.0,0.7810
1754.5,0.7819
1755.0,0.7829
1755.5,0.7838
1756.0,0.7848
1756.5,0.7857
1757.0,0.7867
1757.5,0.7876
1758.0,0.7884
1758.5,0.7892
1759.0,0.7899
1759.5,0.7905
1760.0,0.7911
1760.5,0.7915
1761.0,0.7919
1761.5,0.7921
1762.0,0.7921
1762.5,0.7919
1763.0,0.7915
1763.5,0.7909
1764.0,0.7900
1764.5,0.7889
1765.0,0.7876
1765.5,0.7861
1766.0,0.7845
1766.5,0.7826
1767.0,0.7807
1767.5,0.7787
1768.0,0.7767
1768.5,0.7746
1769.0,0.7725
1769.5,0.7704
1770.0,0.7684
1770.5,0.7665
1771.0,0.7647
1771.5,0.7630
1772.0,0.7615
1772.5,0.7600
1773.0,0.7587
1773.5,0.7575
1774.0,0.7563
1774.5,0.7552
1775.0,0.7541
1775.5,0.7530
1776.0,0.7519
1776.5,0.7509
1777.0,0.7498
1777.5,0.7488
1778.0,0.7479
1778.5,0.7469
1779.0,0.7460
1779.5,0.7451
1780.0,0.7443
1780.5,0.7436
1781.0,0.7428
1781.5,0.7422
1782.0,0.7415
1782.5,0.7410
1783.0,0.7404
1783.5,0.7399
1784.0,0.7394
1784.5,0.7389
1785.0,0.7385
1785.5,0.7381
1786.0,0.7377
1786.5,0.7373
1787.0,0.7369
1787.5,0.7365
1788.0,0.7362
1788.5,0.7358
1789.0,0.7354
1789.5,0.7351
1790.0,0.7347
1790.5,0.7344
1791.0,0.7341
1791.5,0.7338
1792.0,0.7335
1792.5,0.7333
1793.0,0.7331
1793.5,0.7329
1794.0,0.7327
1794.5,0.7325
1795.0,0.7323
1795.5,0.7322
1796.0,0.7320
1796.5,0.7319
1797.0,0.7317
1797.5,0.7316
1798.0,0.7314
1798.5,0.7312
1799.0,0.7310
1799.5,0.7308
1800.0,0.7305
1800.5,0.7302
1801.0,0.7299
1801.5,0.7295
1802.0,0.7292
1802.5,0.7288
1803.0,0.7285
1803.5,0.7281
1804.0,0.7278
1804.5,0.7275
1805.0,0.7272
1805.5,0.7269
1806.0,0.7266
1806.5,0.7264
1807.0,0.7261
1807.5,0.7259
1808.0,0.7257
1808.5,0.7255
1809.0,0.7253
1809.5,0.7250
1810.0,0.7248
1810.5,0.7245
1811.0,0.7243
1811.5,0.7241
1812.0,0.7239
1812.5,0.7237
1813.0,0.7235
1813.5,0.7233
1814.0,0.7231
1814.5,0.7229
1815.0,0.7227
1815.5,0.7225
1816.0,0.7222
1816.5,0.7220
1817.0,0.7217
1817.5,0.7214
1818.0,0.7211
1818.5,0.7208
1819.0,0.7205
1819.5,0.7202
1820.0,0.7198
1820.5,0.7194
1821.0,0.7190
1821.5,0.7186
1822.0,0.7182
1822.5,0.7178
1823.0,0.7173
1823.5,0.7168
1824.0,0.7163
1824.5,0.7158
1825.0,0.7153
1825.5,0.7148
1826.0,0.7143
1826.5,0.7138
1827.0,0.7133
1827.5,0.7129
1828.0,0.7124
1828.5,0.7120
1829.0,0.7116
1829.5,0.7112
1830.0,0.7108
1830.5,0.7104
1831.0,0.7099
1831.5,0.7095
1832.0,0.7090
1832.5,0.7086
1833.0,0.7081
1833.5,0.7077
1834.0,0.7073
1834.5,0.7069
1835.0,0.7065
1835.5,0.7061
1836.0,0.7057
1836.5,0.7052
1837.0,0.7047
1837.5,0.7042
1838.0,0.7036
1838.5,0.7030
1839.0,0.7024
1839.5,0.7018
1840.0,0.7012
1840.5,0.7006
1841.0,0.6999
1841.5,0.6993
1842.0,0.6987
1842.5,0.6980
1843.0,0.6974
1843.5,0.6969
1844.0,0.6963
1844.5,0.6958
1845.0,0.6953
1845.5,0.6948
1846.0,0.6944
1846.5,0.6939
1847.0,0.6934
1847.5,0.6929
1848.0,0.6924
1848.5,0.6918
1849.0,0.6912
1849.5,0.6906
1850.0,0.6900
1850.5,0.6895
1851.0,0.6889
1851.5,0.6884
1852.0,0.6879
1852.5,0.6874
1853.0,0.6870
1853.5,0.6865
1854.0,0.6861
1854.5,0.6857
1855.0,0.6853
1855.5,0.6849
1856.0,0.6845
1856.5,0.6842
1857.0,0.6838
1857.5,0.6835
1858.0,0.6832
1858.5,0.6830
1859.0,0.6827
1859.5,0.6825
1860.0,0.6822
1860.5,0.6820
1861.0,0.6818
1861.5,0.6816
1862.0,0.6814
1862.5,0.6812
1863.0,0.6810
1863.5,0.6808
1864.0,0.6807
1864.5,0.6806
1865.0,0.6805
1865.5,0.6804
1866.0,0.6804
1866.5,0.6804
1867.0,0.6804
1867.5,0.6805
1868.0,0.6806
1868.5,0.6807
1869.0,0.6808
1869.5,0.6809
1870.0,0.6811
1870.5,0.6812
1871.0,0.6813
1871.5,0.6815
1872.0,0.6817
1872.5,0.6819
1873.0,0.6821
1873.5,0.6823
1874.0,0.6826
1874.5,0.6829
1875.0,0.6832
1875.5,0.6835
1876.0,0.6838
1876.5,0.6842
1877.0,0.6846
1877.5,0.6850
1878.0,0.6855
1878.5,0.6861
1879.0,0.6866
1879.5,0.6872
1880.0,0.6879
1880.5,0.6886
1881.0,0.6894
1881.5,0.6902
1882.0,0.6911
1882.5,0.6920
1883.0,0.6930
1883.5,0.6940
1884.0,0.6951
1884.5,0.6963
1885.0,0.6975
1885.5,0.6988
1886.0,0.7000
1886.5,0.7014
1887.0,0.7028
1887.5,0.7043
1888.0,0.7058
1888.5,0.7074
1889.0,0.7091
1889.5,0.7108
1890.0,0.7126
1890.5,0.7145
1891.0,0.7165
1891.5,0.7185
1892.0,0.7206
1892.5,0.7227
1893.0,0.7249
1893.5,0.7271
1894.0,0.7293
1894.5,0.7316
1895.0,0.7339
1895.5,0.7362
1896.0,0.7386
1896.5,0.7411
1897.0,0.7436
1897.5,0.7462
1898.0,0.7490
1898.5,0.7517
1899.0,0.7546
1899.5,0.7575
1900.0,0.7604
1900.5,0.7633
1901.0,0.7663
1901.5,0.7692
1902.0,0.7722
1902.5,0.7752
1903.0,0.7782
1903.5,0.7812
1904.0,0.7842
1904.5,0.7873
1905.0,0.7904
1905.5,0.7935
1906.0,0.7966
1906.5,0.7997
1907.0,0.8027
1907.5,0.8057
1908.0,0.8087
1908.5,0.8115
1909.0,0.8144
1909.5,0.8172
1910.0,0.8200
1910.5,0.8228
1911.0,0.8257
1911.5,0.8285
1912.0,0.8313
1912.5,0.8342
1913.0,0.8370
1913.5,0.8397
1914.0,0.8425
1914.5,0.8451
1915.0,0.8477
1915.5,0.8502
1916.0,0.8527
1916.5,0.8551
1917.0,0.8575
1917.5,0.8599
1918.0,0.8622
1918.5,0.8645
1919.0,0.8668
1919.5,0.8691
1920.0,0.8714
1920.5,0.8736
1921.0,0.8757
1921.5,0.8779
1922.0,0.8799
1922.5,0.8819
1923.0,0.8838
1923.5,0.8856
1924.0,0.8874
1924.5,0.8891
1925.0,0.8907
1925.5,0.8923
1926.0,0.8938
1926.5,0.8952
1927.0,0.8967
1927.5,0.8980
1928.0,0.8993
1928.5,0.9005
1929.0,0.9017
1929.5,0.9028
1930.0,0.9037
1930.5,0.9047
1931.0,0.9055
1931.5,0.9063
1932.0,0.9070
1932.5,0.9076
1933.0,0.9082
1933.5,0.9088
1934.0,0.9093
1934.5,0.9097
1935.0,0.9101
1935.5,0.9104
1936.0,0.9107
1936.5,0.9109
1937.0,0.9110
1937.5,0.9111
1938.0,0.9112
1938.5,0.9112
1939.0,0.9111
1939.5,0.9110
1940.0,0.9108
1940.5,0.9106
1941.0,0.9104
1941.5,0.9102
1942.0,0.9099
1942.5,0.9095
1943.0,0.9092
1943.5,0.9088
1944.0,0.9084
1944.5,0.9080
1945.0,0.9075
1945.5,0.9071
1946.0,0.9066
1946.5,0.9061
1947.0,0.9055
1947.5,0.9049
1948.0,0.9043
1948.5,0.9037
1949.0,0.9030
1949.5,0.9024
1950.0,0.9016
1950.5,0.9009
1951.0,0.9002
1951.5,0.8994
1952.0,0.8987
1952.5,0.8979
1953.0,0.8971
1953.5,0.8963
1954.0,0.8955
1954.5,0.8947
1955.0,0.8940
1955.5,0.8932
1956.0,0.8924
1956.5,0.8917
1957.0,0.8909
1957.5,0.8902
1958.0,0.8895
1958.5,0.8887
1959.0,0.8880
1959.5,0.8873
1960.0,0.8866
1960.5,0.8860
1961.0,0.8853
1961.5,0.8846
1962.0,0.8840
1962.5,0.8834
1963.0,0.8828
1963.5,0.8822
1964.0,0.8816
1964.5,0.8811
1965.0,0.8805
1965.5,0.8799
1966.0,0.8793
1966.5,0.8787
1967.0,0.8781
1967.5,0.8775
1968.0,0.8769
1968.5,0.8762
1969.0,0.8756
1969.5,0.8749
1970.0,0.8743
1970.5,0.8737
1971.0,0.8730
1971.5,0.8724
1972.0,0.8718
1972.5,0.8712
1973.0,0.8706
1973.5,0.8700
1974.0,0.8694
1974.5,0.8688
1975.0,0.8682
1975.5,0.8676
1976.0,0.8670
1976.5,0.8664
1977.0,0.8658
1977.5,0.8652
1978.0,0.8645
1978.5,0.8639
1979.0,0.8632
1979.5,0.8625
1980.0,0.8618
1980.5,0.8611
1981.0,0.8604
1981.5,0.8597
1982.0,0.8590
1982.5,0.8583
1983.0,0.8577
1983.5,0.8570
1984.0,0.8563
1984.5,0.8557
1985.0,0.8550
1985.5,0.8543
1986.0,0.8537
1986.5,0.8530
1987.0,0.8524
1987.5,0.8518
1988.0,0.8511
1988.5,0.8505
1989.0,0.8499
1989.5,0.8493
1990.0,0.8488
1990.5,0.8482
1991.0,0.8477
1991.5,0.8472
1992.0,0.8466
1992.5,0.8461
1993.0,0.8456
1993.5,0.8451
1994.0,0.8445
1994.5,0.8440
1995.0,0.8435
1995.5,0.8430
1996.0,0.8425
1996.5,0.8420
1997.0,0.8416
1997.5,0.8412
1998.0,0.8408
1998.5,0.8405
1999.0,0.8402
1999.5,0.8400
2000.0,0.8398
2000.5,0.8396
2001.0,0.8394
2001.5,0.8393
2002.0,0.8392
2002.5,0.8391
2003.0,0.8390
2003.5,0.8390
2004.0,0.8390
2004.5,0.8390
2005.0,0.8390
2005.5,0.8391
2006.0,0.8392
2006.5,0.8393
2007.0,0.8395
2007.5,0.8397
2008.0,0.8400
2008.5,0.8403
2009.0,0.8407
2009.5,0.8411
2010.0,0.8415
2010.5,0.8419
2011.0,0.8423
2011.5,0.8428
2012.0,0.8433
2012.5,0.8438
2013.0,0.8444
2013.5,0.8449
2014.0,0.8455
2014.5,0.8462
2015.0,0.8469
2015.5,0.8476
2016.0,0.8484
2016.5,0.8493
2017.0,0.8502
2017.5,0.8511
2018.0,0.8521
2018.5,0.8531
2019.0,0.8542
2019.5,0.8553
2020.0,0.8564
2020.5,0.8576
2021.0,0.8588
2021.5,0.8601
2022.0,0.8614
2022.5,0.8627
2023.0,0.8641
2023.5,0.8656
2024.0,0.8671
2024.5,0.8686
2025.0,0.8702
2025.5,0.8718
2026.0,0.8734
2026.5,0.8750
2027.0,0.8767
2027.5,0.8784
2028.0,0.8801
2028.5,0.8819
2029.0,0.8837
2029.5,0.8855
2030.0,0.8873
2030.5,0.8892
2031.0,0.8911
2031.5,0.8931
2032.0,0.8950
2032.5,0.8970
2033.0,0.8990
2033.5,0.9010
2034.0,0.9030
2034.5,0.9050
2035.0,0.9071
2035.5,0.9091
2036.0,0.9111
2036.5,0.9132
2037.0,0.9152
2037.5,0.9173
2038.0,0.9193
2038.5,0.9214
2039.0,0.9235
2039.5,0.9256
2040.0,0.9277
2040.5,0.9298
2041.0,0.9319
2041.5,0.9341
2042.0,0.9362
2042.5,0.9383
2043.0,0.9405
2043.5,0.9426
2044.0,0.9447
2044.5,0.9468
2045.0,0.9489
2045.5,0.9510
2046.0,0.9531
2046.5,0.9551
2047.0,0.9572
2047.5,0.9592
2048.0,0.9612
2048.5,0.9632
2049.0,0.9652
2049.5,0.9671
2050.0,0.9690
2050.5,0.9709
2051.0,0.9728
2051.5,0.9746
2052.0,0.9764
2052.5,0.9781
2053.0,0.9798
2053.5,0.9815
2054.0,0.9831
2054.5,0.9847
2055.0,0.9862
2055.5,0.9877
2056.0,0.9891
2056.5,0.9905
2057.0,0.9919
2057.5,0.9932
2058.0,0.9945
2058.5,0.9957
2059.0,0.9969
2059.5,0.9980
2060.0,0.9992
2060.5,1.0002
2061.0,1.0013
2061.5,1.0023
2062.0,1.0032
2062.5,1.0041
2063.0,1.0050
2063.5,1.0058
2064.0,1.0066
2064.5,1.0074
2065.0,1.0081
2065.5,1.0089
2066.0,1.0096
2066.5,1.0103
2067.0,1.0110
2067.5,1.0117
2068.0,1.0124
2068.5,1.0131
2069.0,1.0138
2069.5,1.0145
2070.0,1.0152
2070.5,1.0159
2071.0,1.0166
2071.5,1.0173
2072.0,1.0180
2072.5,1.0187
2073.0,1.0193
2073.5,1.0200
2074.0,1.0206
2074.5,1.0212
2075.0,1.0218
2075.5,1.0224
2076.0,1.0229
2076.5,1.0235
2077.0,1.0241
2077.5,1.0246
2078.0,1.0252
2078.5,1.0257
2079.0,1.0263
2079.5,1.0268
2080.0,1.0274
2080.5,1.0279
2081.0,1.0284
2081.5,1.0290
2082.0,1.0295
2082.5,1.0300
2083.0,1.0305
2083.5,1.0310
2084.0,1.0315
2084.5,1.0320
2085.0,1.0326
2085.5,1.0331
2086.0,1.0336
2086.5,1.0341
2087.0,1.0347
2087.5,1.0352
2088.0,1.0357
2088.5,1.0363
2089.0,1.0368
2089.5,1.0373
2090.0,1.0378
2090.5,1.0383
2091.0,1.0387
2091.5,1.0391
2092.0,1.0395
2092.5,1.0398
2093.0,1.0402
2093.5,1.0405
2094.0,1.0408
2094.5,1.0411
2095.0,1.0414
2095.5,1.0417
2096.0,1.0420
2096.5,1.0422
2097.0,1.0425
2097.5,1.0428
2098.0,1.0431
2098.5,1.0433
2099.0,1.0436
2099.5,1.0438
2100.0,1.0441
2100.5,1.0443
2101.0,1.0446
2101.5,1.0448
2102.0,1.0450
2102.5,1.0452
2103.0,1.0455
2103.5,1.0457
2104.0,1.0459
2104.5,1.0461
2105.0,1.0463
2105.5,1.0465
2106.0,1.0467
2106.5,1.0469
2107.0,1.0470
2107.5,1.0472
2108.0,1.0474
2108.5,1.0475
2109.0,1.0477
2109.5,1.0479
2110.0,1.0480
2110.5,1.0482
2111.0,1.0483
2111.5,1.0485
2112.0,1.0486
2112.5,1.0487
2113.0,1.0488
2113.5,1.0490
2114.0,1.0491
2114.5,1.0491
2115.0,1.0492
2115.5,1.0493
2116.0,1.0494
2116.5,1.0494
2117.0,1.0495
2117.5,1.0495
2118.0,1.0495
2118.5,1.0495
2119.0,1.0495
2119.5,1.0495
2120.0,1.0495
2120.5,1.0495
2121.0,1.0494
2121.5,1.0494
2122.0,1.0493
2122.5,1.0493
2123.0,1.0493
2123.5,1.0492
2124.0,1.0492
2124.5,1.0491
2125.0,1.0491
2125.5,1.0490
2126.0,1.0488
2126.5,1.0487
2127.0,1.0485
2127.5,1.0483
2128.0,1.0480
2128.5,1.0478
2129.0,1.0475
2129.5,1.0472
2130.0,1.0470
2130.5,1.0467
2131.0,1.0464
2131.5,1.0462
2132.0,1.0459
2132.5,1.0457
2133.0,1.0455
2133.5,1.0453
2134.0,1.0451
2134.5,1.0450
2135.0,1.0448
2135.5,1.0447
2136.0,1.0445
2136.5,1.0444
2137.0,1.0443
2137.5,1.0441
2138.0,1.0440
2138.5,1.0439
2139.0,1.0439
2139.5,1.0438
2140.0,1.0437
2140.5,1.0436
2141.0,1.0435
2141.5,1.0434
2142.0,1.0433
2142.5,1.0432
2143.0,1.0431
2143.5,1.0429
2144.0,1.0427
2144.5,1.0425
2145.0,1.0422
2145.5,1.0420
2146.0,1.0417
2146.5,1.0413
2147.0,1.0410
2147.5,1.0406
2148.0,1.0401
2148.5,1.0397
2149.0,1.0392
2149.5,1.0388
2150.0,1.0383
2150.5,1.0378
2151.0,1.0373
2151.5,1.0368
2152.0,1.0363
2152.5,1.0358
2153.0,1.0354
2153.5,1.0350
2154.0,1.0346
2154.5,1.0342
2155.0,1.0339
2155.5,1.0336
2156.0,1.0334
2156.5,1.0331
2157.0,1.0329
2157.5,1.0327
2158.0,1.0325
2158.5,1.0323
2159.0,1.0321
2159.5,1.0320
2160.0,1.0318
2160.5,1.0316
2161.0,1.0314
2161.5,1.0312
2162.0,1.0309
2162.5,1.0307
2163.0,1.0304
2163.5,1.0301
2164.0,1.0298
2164.5,1.0295
2165.0,1.0292
2165.5,1.0289
2166.0,1.0285
2166.5,1.0282
2167.0,1.0279
2167.5,1.0275
2168.0,1.0272
2168.5,1.0269
2169.0,1.0265
2169.5,1.0262
2170.0,1.0259
2170.5,1.0255
2171.0,1.0252
2171.5,1.0249
2172.0,1.0245
2172.5,1.0242
2173.0,1.0238
2173.5,1.0234
2174.0,1.0231
2174.5,1.0227
2175.0,1.0223
2175.5,1.0218
2176.0,1.0214
2176.5,1.0209
2177.0,1.0205
2177.5,1.0200
2178.0,1.0195
2178.5,1.0190
2179.0,1.0184
2179.5,1.0179
2180.0,1.0173
2180.5,1.0168
2181.0,1.0162
2181.5,1.0157
2182.0,1.0151
2182.5,1.0145
2183.0,1.0139
2183.5,1.0133
2184.0,1.0127
2184.5,1.0121
2185.0,1.0115
2185.5,1.0109
2186.0,1.0103
2186.5,1.0097
2187.0,1.0090
2187.5,1.0084
2188.0,1.0078
2188.5,1.0071
2189.0,1.0065
2189.5,1.0059
2190.0,1.0053
2190.5,1.0047
2191.0,1.0041
2191.5,1.0035
2192.0,1.0029
2192.5,1.0023
2193.0,1.0017
2193.5,1.0011
2194.0,1.0005
2194.5,0.9999
2195.0,0.9993
2195.5,0.9987
2196.0,0.9981
2196.5,0.9974
2197.0,0.9968
2197.5,0.9962
2198.0,0.9956
2198.5,0.9951
2199.0,0.9945
2199.5,0.9939
2200.0,0.9934
2200.5,0.9928
2201.0,0.9923
2201.5,0.9918
2202.0,0.9913
2202.5,0.9908
2203.0,0.9903
2203.5,0.9898
2204.0,0.9894
2204.5,0.9889
2205.0,0.9885
2205.5,0.9880
2206.0,0.9876
2206.5,0.9872
2207.0,0.9867
2207.5,0.9863
2208.0,0.9859
2208.5,0.9855
2209.0,0.9851
2209.5,0.9846
2210.0,0.9842
2210.5,0.9837
2211.0,0.9832
2211.5,0.9827
2212.0,0.9822
2212.5,0.9817
2213.0,0.9812
2213.5,0.9807
2214.0,0.9802
2214.5,0.9797
2215.0,0.9792
2215.5,0.9787
2216.0,0.9783
2216.5,0.9779
2217.0,0.9774
2217.5,0.9770
2218.0,0.9767
2218.5,0.9763
2219.0,0.9760
2219.5,0.9757
2220.0,0.9754
2220.5,0.9751
2221.0,0.9748
2221.5,0.9746
2222.0,0.9744
2222.5,0.9742
2223.0,0.9740
2223.5,0.9739
2224.0,0.9738
2224.5,0.9737
2225.0,0.9736
2225.5,0.9735
2226.0,0.9735
2226.5,0.9735
2227.0,0.9735
2227.5,0.9736
2228.0,0.9737
2228.5,0.9738
2229.0,0.9740
2229.5,0.9742
2230.0,0.9745
2230.5,0.9748
2231.0,0.9751
2231.5,0.9755
2232.0,0.9760
2232.5,0.9765
2233.0,0.9771
2233.5,0.9777
2234.0,0.9784
2234.5,0.9792
2235.0,0.9800
2235.5,0.9809
2236.0,0.9819
2236.5,0.9830
2237.0,0.9841
2237.5,0.9852
2238.0,0.9865
2238.5,0.9878
2239.0,0.9891
2239.5,0.9905
2240.0,0.9920
2240.5,0.9935
2241.0,0.9951
2241.5,0.9967
2242.0,0.9984
2242.5,1.0002
2243.0,1.0021
2243.5,1.0040
2244.0,1.0060
2244.5,1.0082
2245.0,1.0103
2245.5,1.0126
2246.0,1.0150
2246.5,1.0174
2247.0,1.0200
2247.5,1.0226
2248.0,1.0252
2248.5,1.0279
2249.0,1.0307
2249.5,1.0335
2250.0,1.0364
2250.5,1.0392
2251.0,1.0421
2251.5,1.0451
2252.0,1.0480
2252.5,1.0510
2253.0,1.0539
2253.5,1.0569
2254.0,1.0599
2254.5,1.0629
2255.0,1.0660
2255.5,1.0690
2256.0,1.0721
2256.5,1.0751
2257.0,1.0782
2257.5,1.0813
2258.0,1.0843
2258.5,1.0874
2259.0,1.0905
2259.5,1.0935
2260.0,1.0966
2260.5,1.0996
2261.0,1.1027
2261.5,1.1057
2262.0,1.1087
2262.5,1.1117
2263.0,1.1147
2263.5,1.1177
2264.0,1.1206
2264.5,1.1236
2265.0,1.1265
2265.5,1.1294
2266.0,1.1323
2266.5,1.1352
2267.0,1.1381
2267.5,1.1409
2268.0,1.1436
2268.5,1.1464
2269.0,1.1490
2269.5,1.1516
2270.0,1.1542
2270.5,1.1566
2271.0,1.1590
2271.5,1.1613
2272.0,1.1635
2272.5,1.1656
2273.0,1.1676
2273.5,1.1696
2274.0,1.1714
2274.5,1.1731
2275.0,1.1748
2275.5,1.1764
2276.0,1.1780
2276.5,1.1795
2277.0,1.1809
2277.5,1.1824
2278.0,1.1838
2278.5,1.1852
2279.0,1.1866
2279.5,1.1880
2280.0,1.1895
2280.5,1.1910
2281.0,1.1924
2281.5,1.1939
2282.0,1.1955
2282.5,1.1970
2283.0,1.1986
2283.5,1.2002
2284.0,1.2018
2284.5,1.2034
2285.0,1.2051
2285.5,1.2068
2286.0,1.2085
2286.5,1.2102
2287.0,1.2119
2287.5,1.2137
2288.0,1.2155
2288.5,1.2173
2289.0,1.2192
2289.5,1.2212
2290.0,1.2232
2290.5,1.2253
2291.0,1.2275
2291.5,1.2298
2292.0,1.2323
2292.5,1.2348
2293.0,1.2375
2293.5,1.2403
2294.0,1.2433
2294.5,1.2464
2295.0,1.2497
2295.5,1.2531
2296.0,1.2566
2296.5,1.2602
2297.0,1.2640
2297.5,1.2678
2298.0,1.2717
2298.5,1.2757
2299.0,1.2798
2299.5,1.2839
2300.0,1.2880
2300.5,1.2922
2301.0,1.2963
2301.5,1.3004
2302.0,1.3045
2302.5,1.3084
2303.0,1.3123
2303.5,1.3161
2304.0,1.3196
2304.5,1.3230
2305.0,1.3261
2305.5,1.3289
2306.0,1.3314
2306.5,1.3336
2307.0,1.3353
2307.5,1.3366
2308.0,1.3374
2308.5,1.3376
2309.0,1.3374
2309.5,1.3366
2310.0,1.3353
2310.5,1.3335
2311.0,1.3312
2311.5,1.3284
2312.0,1.3251
2312.5,1.3215
2313.0,1.3175
2313.5,1.3132
2314.0,1.3087
2314.5,1.3041
2315.0,1.2993
2315.5,1.2946
2316.0,1.2899
2316.5,1.2852
2317.0,1.2808
2317.5,1.2765
2318.0,1.2724
2318.5,1.2686
2319.0,1.2651
2319.5,1.2618
2320.0,1.2589
2320.5,1.2562
2321.0,1.2538
2321.5,1.2517
2322.0,1.2498
2322.5,1.2482
2323.0,1.2468
2323.5,1.2455
2324.0,1.2445
2324.5,1.2436
2325.0,1.2428
2325.5,1.2422
2326.0,1.2418
2326.5,1.2414
2327.0,1.2411
2327.5,1.2410
2328.0,1.2410
2328.5,1.2411
2329.0,1.2412
2329.5,1.2415
2330.0,1.2419
2330.5,1.2424
2331.0,1.2430
2331.5,1.2437
2332.0,1.2445
2332.5,1.2454
2333.0,1.2464
2333.5,1.2475
2334.0,1.2488
2334.5,1.2502
2335.0,1.2517
2335.5,1.2534
2336.0,1.2552
2336.5,1.2572
2337.0,1.2593
2337.5,1.2616
2338.0,1.2641
2338.5,1.2668
2339.0,1.2696
2339.5,1.2725
2340.0,1.2756
2340.5,1.2787
2341.0,1.2820
2341.5,1.2853
2342.0,1.2886
2342.5,1.2919
2343.0,1.2951
2343.5,1.2982
2344.0,1.3012
2344.5,1.3040
2345.0,1.3065
2345.5,1.3087
2346.0,1.3106
2346.5,1.3121
2347.0,1.3132
2347.5,1.3139
2348.0,1.3141
2348.5,1.3138
2349.0,1.3130
2349.5,1.3117
2350.0,1.3101
2350.5,1.3079
2351.0,1.3055
2351.5,1.3027
2352.0,1.2996
2352.5,1.2964
2353.0,1.2930
2353.5,1.2895
2354.0,1.2860
2354.5,1.2826
2355.0,1.2792
2355.5,1.2761
2356.0,1.2730
2356.5,1.2702
2357.0,1.2676
2357.5,1.2652
2358.0,1.2631
2358.5,1.2612
2359.0,1.2596
2359.5,1.2582
2360.0,1.2570
2360.5,1.2560
2361.0,1.2552
2361.5,1.2546
2362.0,1.2542
2362.5,1.2539
2363.0,1.2537
2363.5,1.2536
2364.0,1.2536
2364.5,1.2537
2365.0,1.2538
2365.5,1.2540
2366.0,1.2542
2366.5,1.2544
2367.0,1.2546
2367.5,1.2547
2368.0,1.2549
2368.5,1.2550
2369.0,1.2552
2369.5,1.2552
2370.0,1.2553
2370.5,1.2553
2371.0,1.2553
2371.5,1.2552
2372.0,1.2552
2372.5,1.2551
2373.0,1.2551
2373.5,1.2550
2374.0,1.2550
2374.5,1.2550
2375.0,1.2550
2375.5,1.2550
2376.0,1.2551
2376.5,1.2552
2377.0,1.2553
2377.5,1.2554
2378.0,1.2555
2378.5,1.2557
2379.0,1.2558
2379.5,1.2560
2380.0,1.2561
2380.5,1.2563
2381.0,1.2564
2381.5,1.2566
2382.0,1.2567
2382.5,1.2568
2383.0,1.2569
2383.5,1.2570
2384.0,1.2571
2384.5,1.2571
2385.0,1.2571
2385.5,1.2571
2386.0,1.2571
2386.5,1.2570
2387.0,1.2569
2387.5,1.2569
2388.0,1.2567
2388.5,1.2566
2389.0,1.2565
2389.5,1.2564
2390.0,1.2563
2390.5,1.2561
2391.0,1.2560
2391.5,1.2560
2392.0,1.2559
2392.5,1.2559
2393.0,1.2559
2393.5,1.2560
2394.0,1.2560
2394.5,1.2562
2395.0,1.2563
2395.5,1.2565
2396.0,1.2567
2396.5,1.2569
2397.0,1.2572
2397.5,1.2575
2398.0,1.2578
2398.5,1.2581
2399.0,1.2584
2399.5,1.2587
2400.0,1.2590
2400.5,1.2593
2401.0,1.2596
2401.5,1.2599
2402.0,1.2603
2402.5,1.2606
2403.0,1.2609
2403.5,1.2612
2404.0,1.2615
2404.5,1.2618
2405.0,1.2621
2405.5,1.2624
2406.0,1.2628
2406.5,1.2631
2407.0,1.2635
2407.5,1.2639
2408.0,1.2643
2408.5,1.2647
2409.0,1.2651
2409.5,1.2656
2410.0,1.2660
2410.5,1.2665
2411.0,1.2669
2411.5,1.2674
2412.0,1.2679
2412.5,1.2684
2413.0,1.2688
2413.5,1.2693
2414.0,1.2698
2414.5,1.2703
2415.0,1.2708
2415.5,1.2714
2416.0,1.2719
2416.5,1.2724
2417.0,1.2730
2417.5,1.2736
2418.0,1.2742
2418.5,1.2748
2419.0,1.2754
2419.5,1.2761
2420.0,1.2768
2420.5,1.2774
2421.0,1.2781
2421.5,1.2788
2422.0,1.2795
2422.5,1.2803
2423.0,1.2810
2423.5,1.2817
2424.0,1.2825
2424.5,1.2832
2425.0,1.2840
2425.5,1.2848
2426.0,1.2856
2426.5,1.2864
2427.0,1.2872
2427.5,1.2880
2428.0,1.2889
2428.5,1.2897
2429.0,1.2906
2429.5,1.2915
2430.0,1.2924
2430.5,1.2932
2431.0,1.2941
2431.5,1.2950
2432.0,1.2958
2432.5,1.2967
2433.0,1.2975
2433.5,1.2984
2434.0,1.2993
2434.5,1.3001
2435.0,1.3010
2435.5,1.3018
2436.0,1.3027
2436.5,1.3036
2437.0,1.3046
2437.5,1.3055
2438.0,1.3065
2438.5,1.3075
2439.0,1.3085
2439.5,1.3096
2440.0,1.3106
2440.5,1.3117
2441.0,1.3128
2441.5,1.3140
2442.0,1.3151
2442.5,1.3162
2443.0,1.3173
2443.5,1.3184
2444.0,1.3195
2444.5,1.3206
2445.0,1.3217
2445.5,1.3228
2446.0,1.3239
2446.5,1.3250
2447.0,1.3260
2447.5,1.3271
2448.0,1.3282
2448.5,1.3294
2449.0,1.3305
2449.5,1.3317
2450.0,1.3329
2450.5,1.3342
2451.0,1.3355
2451.5,1.3368
2452.0,1.3382
2452.5,1.3396
2453.0,1.3410
2453.5,1.3424
2454.0,1.3439
2454.5,1.3453
2455.0,1.3468
2455.5,1.3482
2456.0,1.3496
2456.5,1.3510
2457.0,1.3524
2457.5,1.3537
2458.0,1.3550
2458.5,1.3563
2459.0,1.3575
2459.5,1.3586
2460.0,1.3598
2460.5,1.3608
2461.0,1.3619
2461.5,1.3629
2462.0,1.3638
2462.5,1.3648
2463.0,1.3657
2463.5,1.3667
2464.0,1.3676
2464.5,1.3685
2465.0,1.3694
2465.5,1.3703
2466.0,1.3712
2466.5,1.3721
2467.0,1.3729
2467.5,1.3738
2468.0,1.3746
2468.5,1.3754
2469.0,1.3762
2469.5,1.3769
2470.0,1.3777
2470.5,1.3784
2471.0,1.3790
2471.5,1.3797
2472.0,1.3803
2472.5,1.3809
2473.0,1.3815
2473.5,1.3821
2474.0,1.3827
2474.5,1.3833
2475.0,1.3838
2475.5,1.3844
2476.0,1.3850
2476.5,1.3855
2477.0,1.3860
2477.5,1.3865
2478.0,1.3870
2478.5,1.3875
2479.0,1.3879
2479.5,1.3882
2480.0,1.3886
2480.5,1.3889
2481.0,1.3891
2481.5,1.3894
2482.0,1.3896
2482.5,1.3898
2483.0,1.3899
2483.5,1.3901
2484.0,1.3902
2484.5,1.3904
2485.0,1.3905
2485.5,1.3907
2486.0,1.3909
2486.5,1.3911
2487.0,1.3913
2487.5,1.3915
2488.0,1.3917
2488.5,1.3919
2489.0,1.3921
2489.5,1.3922
2490.0,1.3924
2490.5,1.3925
2491.0,1.3927
2491.5,1.3928
2492.0,1.3929
2492.5,1.3929
2493.0,1.3930
2493.5,1.3930
2494.0,1.3930
2494.5,1.3930
2495.0,1.3930
2495.5,1.3930
2496.0,1.3930
2496.5,1.3930
2497.0,1.3929
2497.5,1.3928
2498.0,1.3927
2498.5,1.3926
2499.0,1.3925
2499.5,1.3923
2500.0,1.3922
