Created as New Dataset,Sample 038 By Gonçalo Guedes Date Monday, June 19 2023
nm,A
1000.0,0.4367
1000.5,0.4384
1001.0,0.4403
1001.5,0.4414
1002.0,0.4433
1002.5,0.4460
1003.0,0.4466
1003.5,0.4456
1004.0,0.4454
1004.5,0.4465
1005.0,0.4479
1005.5,0.4494
1006.0,0.4500
1006.5,0.4488
1007.0,0.4468
1007.5,0.4458
1008.0,0.4462
1008.5,0.4476
1009.0,0.4483
1009.5,0.4474
1010.0,0.4459
1010.5,0.4456
1011.0,0.4462
1011.5,0.4460
1012.0,0.4443
1012.5,0.4414
1013.0,0.4379
1013.5,0.4349
1014.0,0.4341
1014.5,0.4364
1015.0,0.4407
1015.5,0.4448
1016.0,0.4475
1016.5,0.4492
1017.0,0.4495
1017.5,0.4473
1018.0,0.4441
1018.5,0.4424
1019.0,0.4419
1019.5,0.4414
1020.0,0.4421
1020.5,0.4445
1021.0,0.4464
1021.5,0.4454
1022.0,0.4423
1022.5,0.4391
1023.0,0.4370
1023.5,0.4365
1024.0,0.4372
1024.5,0.4389
1025.0,0.4415
1025.5,0.4442
1026.0,0.4450
1026.5,0.4433
1027.0,0.4414
1027.5,0.4413
1028.0,0.4419
1028.5,0.4415
1029.0,0.4411
1029.5,0.4425
1030.0,0.4452
1030.5,0.4466
1031.0,0.4454
1031.5,0.4425
1032.0,0.4398
1032.5,0.4387
1033.0,0.4393
1033.5,0.4406
1034.0,0.4414
1034.5,0.4423
1035.0,0.4440
1035.5,0.4456
1036.0,0.4449
1036.5,0.4421
1037.0,0.4389
1037.5,0.4360
1038.0,0.4335
1038.5,0.4319
1039.0,0.4318
1039.5,0.4328
1040.0,0.4347
1040.5,0.4371
1041.0,0.4394
1041.5,0.4410
1042.0,0.4419
1042.5,0.4423
1043.0,0.4416
1043.5,0.4400
1044.0,0.4390
1044.5,0.4390
1045.0,0.4390
1045.5,0.4382
1046.0,0.4369
1046.5,0.4359
1047.0,0.4360
1047.5,0.4370
1048.0,0.4385
1048.5,0.4397
1049.0,0.4402
1049.5,0.4399
1050.0,0.4389
1050.5,0.4375
1051.0,0.4363
1051.5,0.4356
1052.0,0.4347
1052.5,0.4336
1053.0,0.4326
1053.5,0.4326
1054.0,0.4335
1054.5,0.4343
1055.0,0.4344
1055.5,0.4342
1056.0,0.4343
1056.5,0.4344
1057.0,0.4339
1057.5,0.4330
1058.0,0.4328
1058.5,0.4334
1059.0,0.4339
1059.5,0.4336
1060.0,0.4326
1060.5,0.4311
1061.0,0.4293
1061.5,0.4278
1062.0,0.4277
1062.5,0.4286
1063.0,0.4298
1063.5,0.4308
1064.0,0.4317
1064.5,0.4323
1065.0,0.4321
1065.5,0.4315
1066.0,0.4313
1066.5,0.4319
1067.0,0.4323
1067.5,0.4315
1068.0,0.4295
1068.5,0.4275
1069.0,0.4269
1069.5,0.4281
1070.0,0.4301
1070.5,0.4315
1071.0,0.4320
1071.5,0.4317
1072.0,0.4311
1072.5,0.4303
1073.0,0.4297
1073.5,0.4295
1074.0,0.4294
1074.5,0.4291
1075.0,0.4286
1075.5,0.4285
1076.0,0.4286
1076.5,0.4288
1077.0,0.4285
1077.5,0.4281
1078.0,0.4281
1078.5,0.4285
1079.0,0.4287
1079.5,0.4284
1080.0,0.4280
1080.5,0.4278
1081.0,0.4278
1081.5,0.4276
1082.0,0.4271
1082.5,0.4271
1083.0,0.4280
1083.5,0.4294
1084.0,0.4303
1084.5,0.4301
1085.0,0.4293
1085.5,0.4288
1086.0,0.4289
1086.5,0.4293
1087.0,0.4302
1087.5,0.4313
1088.0,0.4320
1088.5,0.4318
1089.0,0.4308
1089.5,0.4297
1090.0,0.4288
1090.5,0.4283
1091.0,0.4280
1091.5,0.4280
1092.0,0.4282
1092.5,0.4284
1093.0,0.4285
1093.5,0.4285
1094.0,0.4290
1094.5,0.4300
1095.0,0.4306
1095.5,0.4303
1096.0,0.4291
1096.5,0.4276
1097.0,0.4264
1097.5,0.4258
1098.0,0.4256
1098.5,0.4258
1099.0,0.4264
1099.5,0.4272
1100.0,0.4281
1100.5,0.4292
1101.0,0.4301
1101.5,0.4303
1102.0,0.4298
1102.5,0.4286
1103.0,0.4274
1103.5,0.4268
1104.0,0.4270
1104.5,0.4275
1105.0,0.4279
1105.5,0.4280
1106.0,0.4280
1106.5,0.4281
1107.0,0.4284
1107.5,0.4286
1108.0,0.4283
1108.5,0.4278
1109.0,0.4276
1109.5,0.4279
1110.0,0.4281
1110.5,0.4274
1111.0,0.4261
1111.5,0.4252
1112.0,0.4255
1112.5,0.4266
1113.0,0.4276
1113.5,0.4280
1114.0,0.4281
1114.5,0.4287
1115.0,0.4293
1115.5,0.4297
1116.0,0.4294
1116.5,0.4290
1117.0,0.4289
1117.5,0.4289
1118.0,0.4287
1118.5,0.4280
1119.0,0.4273
1119.5,0.4272
1120.0,0.4277
1120.5,0.4282
1121.0,0.4282
1121.5,0.4279
1122.0,0.4277
1122.5,0.4276
1123.0,0.4275
1123.5,0.4271
1124.0,0.4267
1124.5,0.4263
1125.0,0.4260
1125.5,0.4258
1126.0,0.4260
1126.5,0.4265
1127.0,0.4272
1127.5,0.4279
1128.0,0.4285
1128.5,0.4291
1129.0,0.4297
1129.5,0.4301
1130.0,0.4303
1130.5,0.4301
1131.0,0.4297
1131.5,0.4293
1132.0,0.4292
1132.5,0.4299
1133.0,0.4310
1133.5,0.4322
1134.0,0.4330
1134.5,0.4335
1135.0,0.4341
1135.5,0.4348
1136.0,0.4355
1136.5,0.4360
1137.0,0.4361
1137.5,0.4359
1138.0,0.4358
1138.5,0.4361
1139.0,0.4369
1139.5,0.4380
1140.0,0.4392
1140.5,0.4402
1141.0,0.4408
1141.5,0.4412
1142.0,0.4414
1142.5,0.4416
1143.0,0.4419
1143.5,0.4422
1144.0,0.4427
1144.5,0.4434
1145.0,0.4444
1145.5,0.4454
1146.0,0.4464
1146.5,0.4473
1147.0,0.4484
1147.5,0.4494
1148.0,0.4502
1148.5,0.4509
1149.0,0.4514
1149.5,0.4520
1150.0,0.4524
1150.5,0.4528
1151.0,0.4532
1151.5,0.4537
1152.0,0.4543
1152.5,0.4549
1153.0,0.4557
1153.5,0.4566
1154.0,0.4574
1154.5,0.4580
1155.0,0.4582
1155.5,0.4584
1156.0,0.4589
1156.5,0.4598
1157.0,0.4610
1157.5,0.4623
1158.0,0.4634
1158.5,0.4644
1159.0,0.4656
1159.5,0.4673
1160.0,0.4693
1160.5,0.4711
1161.0,0.4726
1161.5,0.4738
1162.0,0.4749
1162.5,0.4760
1163.0,0.4769
1163.5,0.4774
1164.0,0.4776
1164.5,0.4779
1165.0,0.4785
1165.5,0.4797
1166.0,0.4812
1166.5,0.4827
1167.0,0.4839
1167.5,0.4847
1168.0,0.4854
1168.5,0.4862
1169.0,0.4870
1169.5,0.4877
1170.0,0.4878
1170.5,0.4875
1171.0,0.4869
1171.5,0.4866
1172.0,0.4868
1172.5,0.4877
1173.0,0.4890
1173.5,0.4904
1174.0,0.4917
1174.5,0.4929
1175.0,0.4941
1175.5,0.4952
1176.0,0.4959
1176.5,0.4963
1177.0,0.4964
1177.5,0.4967
1178.0,0.4971
1178.5,0.4978
1179.0,0.4987
1179.5,0.4997
1180.0,0.5007
1180.5,0.5017
1181.0,0.5027
1181.5,0.5037
1182.0,0.5049
1182.5,0.5063
1183.0,0.5077
1183.5,0.5091
1184.0,0.5104
1184.5,0.5117
1185.0,0.5129
1185.5,0.5141
1186.0,0.5153
1186.5,0.5165
1187.0,0.5179
1187.5,0.5194
1188.0,0.5208
1188.5,0.5218
1189.0,0.5224
1189.5,0.5227
1190.0,0.5229
1190.5,0.5231
1191.0,0.5235
1191.5,0.5240
1192.0,0.5246
1192.5,0.5253
1193.0,0.5261
1193.5,0.5271
1194.0,0.5281
1194.5,0.5291
1195.0,0.5299
1195.5,0.5306
1196.0,0.5311
1196.5,0.5315
1197.0,0.5320
1197.5,0.5326
1198.0,0.5333
1198.5,0.5338
1199.0,0.5342
1199.5,0.5345
1200.0,0.5347
1200.5,0.5349
1201.0,0.5352
1201.5,0.5358
1202.0,0.5367
1202.5,0.5377
1203.0,0.5386
1203.5,0.5390
1204.0,0.5391
1204.5,0.5394
1205.0,0.5401
1205.5,0.5413
1206.0,0.5428
1206.5,0.5444
1207.0,0.5458
1207.5,0.5468
1208.0,0.5473
1208.5,0.5475
1209.0,0.5474
1209.5,0.5473
1210.0,0.5472
1210.5,0.5471
1211.0,0.5471
1211.5,0.5473
1212.0,0.5476
1212.5,0.5478
1213.0,0.5474
1213.5,0.5465
1214.0,0.5453
1214.5,0.5443
1215.0,0.5436
1215.5,0.5430
1216.0,0.5424
1216.5,0.5413
1217.0,0.5399
1217.5,0.5382
1218.0,0.5365
1218.5,0.5349
1219.0,0.5334
1219.5,0.5319
1220.0,0.5303
1220.5,0.5289
1221.0,0.5276
1221.5,0.5264
1222.0,0.5250
1222.5,0.5231
1223.0,0.5209
1223.5,0.5187
1224.0,0.5168
1224.5,0.5153
1225.0,0.5139
1225.5,0.5123
1226.0,0.5105
1226.5,0.5087
1227.0,0.5069
1227.5,0.5053
1228.0,0.5038
1228.5,0.5025
1229.0,0.5012
1229.5,0.4999
1230.0,0.4987
1230.5,0.4977
1231.0,0.4969
1231.5,0.4963
1232.0,0.4956
1232.5,0.4945
1233.0,0.4933
1233.5,0.4922
1234.0,0.4913
1234.5,0.4905
1235.0,0.4896
1235.5,0.4885
1236.0,0.4875
1236.5,0.4867
1237.0,0.4860
1237.5,0.4853
1238.0,0.4845
1238.5,0.4834
1239.0,0.4824
1239.5,0.4817
1240.0,0.4812
1240.5,0.4808
1241.0,0.4805
1241.5,0.4801
1242.0,0.4796
1242.5,0.4790
1243.0,0.4786
1243.5,0.4783
1244.0,0.4781
1244.5,0.4779
1245.0,0.4776
1245.5,0.4771
1246.0,0.4764
1246.5,0.4757
1247.0,0.4752
1247.5,0.4747
1248.0,0.4743
1248.5,0.4738
1249.0,0.4733
1249.5,0.4726
1250.0,0.4718
1250.5,0.4712
1251.0,0.4706
1251.5,0.4703
1252.0,0.4700
1252.5,0.4699
1253.0,0.4697
1253.5,0.4695
1254.0,0.4692
1254.5,0.4690
1255.0,0.4688
1255.5,0.4684
1256.0,0.4680
1256.5,0.4674
1257.0,0.4668
1257.5,0.4662
1258.0,0.4658
1258.5,0.4656
1259.0,0.4655
1259.5,0.4655
1260.0,0.4655
1260.5,0.4654
1261.0,0.4652
1261.5,0.4650
1262.0,0.4648
1262.5,0.4646
1263.0,0.4645
1263.5,0.4643
1264.0,0.4640
1264.5,0.4637
1265.0,0.4632
1265.5,0.4629
1266.0,0.4628
1266.5,0.4628
1267.0,0.4630
1267.5,0.4631
1268.0,0.4632
1268.5,0.4630
1269.0,0.4628
1269.5,0.4626
1270.0,0.4624
1270.5,0.4621
1271.0,0.4618
1271.5,0.4614
1272.0,0.4611
1272.5,0.4609
1273.0,0.4607
1273.5,0.4606
1274.0,0.4604
1274.5,0.4603
1275.0,0.4601
1275.5,0.4600
1276.0,0.4598
1276.5,0.4596
1277.0,0.4593
1277.5,0.4589
1278.0,0.4584
1278.5,0.4580
1279.0,0.4577
1279.5,0.4575
1280.0,0.4573
1280.5,0.4570
1281.0,0.4567
1281.5,0.4564
1282.0,0.4563
1282.5,0.4562
1283.0,0.4563
1283.5,0.4563
1284.0,0.4561
1284.5,0.4555
1285.0,0.4549
1285.5,0.4543
1286.0,0.4540
1286.5,0.4538
1287.0,0.4539
1287.5,0.4539
1288.0,0.4539
1288.5,0.4538
1289.0,0.4537
1289.5,0.4534
1290.0,0.4531
1290.5,0.4529
1291.0,0.4526
1291.5,0.4524
1292.0,0.4521
1292.5,0.4518
1293.0,0.4515
1293.5,0.4511
1294.0,0.4508
1294.5,0.4505
1295.0,0.4502
1295.5,0.4498
1296.0,0.4495
1296.5,0.4493
1297.0,0.4491
1297.5,0.4489
1298.0,0.4486
1298.5,0.4485
1299.0,0.4484
1299.5,0.4484
1300.0,0.4485
1300.5,0.4486
1301.0,0.4486
1301.5,0.4486
1302.0,0.4487
1302.5,0.4488
1303.0,0.4490
1303.5,0.4491
1304.0,0.4493
1304.5,0.4493
1305.0,0.4492
1305.5,0.4490
1306.0,0.4489
1306.5,0.4487
1307.0,0.4486
1307.5,0.4485
1308.0,0.4483
1308.5,0.4480
1309.0,0.4477
1309.5,0.4474
1310.0,0.4472
1310.5,0.4471
1311.0,0.4471
1311.5,0.4470
1312.0,0.4469
1312.5,0.4469
1313.0,0.4468
1313.5,0.4467
1314.0,0.4466
1314.5,0.4465
1315.0,0.4464
1315.5,0.4463
1316.0,0.4463
1316.5,0.4463
1317.0,0.4463
1317.5,0.4464
1318.0,0.4465
1318.5,0.4466
1319.0,0.4467
1319.5,0.4468
1320.0,0.4469
1320.5,0.4469
1321.0,0.4469
1321.5,0.4469
1322.0,0.4470
1322.5,0.4471
1323.0,0.4472
1323.5,0.4473
1324.0,0.4475
1324.5,0.4477
1325.0,0.4480
1325.5,0.4483
1326.0,0.4484
1326.5,0.4483
1327.0,0.4481
1327.5,0.4478
1328.0,0.4477
1328.5,0.4478
1329.0,0.4482
1329.5,0.4488
1330.0,0.4496
1330.5,0.4502
1331.0,0.4506
1331.5,0.4509
1332.0,0.4510
1332.5,0.4511
1333.0,0.4512
1333.5,0.4513
1334.0,0.4514
1334.5,0.4515
1335.0,0.4517
1335.5,0.4521
1336.0,0.4526
1336.5,0.4532
1337.0,0.4539
1337.5,0.4544
1338.0,0.4550
1338.5,0.4554
1339.0,0.4559
1339.5,0.4564
1340.0,0.4568
1340.5,0.4573
1341.0,0.4577
1341.5,0.4582
1342.0,0.4588
1342.5,0.4593
1343.0,0.4598
1343.5,0.4603
1344.0,0.4609
1344.5,0.4614
1345.0,0.4620
1345.5,0.4627
1346.0,0.4633
1346.5,0.4639
1347.0,0.4646
1347.5,0.4653
1348.0,0.4661
1348.5,0.4669
1349.0,0.4677
1349.5,0.4686
1350.0,0.4694
1350.5,0.4703
1351.0,0.4711
1351.5,0.4719
1352.0,0.4728
1352.5,0.4737
1353.0,0.4747
1353.5,0.4757
1354.0,0.4767
1354.5,0.4777
1355.0,0.4787
1355.5,0.4797
1356.0,0.4807
1356.5,0.4817
1357.0,0.4828
1357.5,0.4838
1358.0,0.4849
1358.5,0.4860
1359.0,0.4871
1359.5,0.4882
1360.0,0.4893
1360.5,0.4903
1361.0,0.4912
1361.5,0.4919
1362.0,0.4925
1362.5,0.4929
1363.0,0.4933
1363.5,0.4937
1364.0,0.4944
1364.5,0.4953
1365.0,0.4965
1365.5,0.4977
1366.0,0.4988
1366.5,0.4998
1367.0,0.5007
1367.5,0.5015
1368.0,0.5022
1368.5,0.5028
1369.0,0.5036
1369.5,0.5043
1370.0,0.5052
1370.5,0.5060
1371.0,0.5069
1371.5,0.5077
1372.0,0.5085
1372.5,0.5093
1373.0,0.5101
1373.5,0.5110
1374.0,0.5118
1374.5,0.5126
1375.0,0.5134
1375.5,0.5142
1376.0,0.5150
1376.5,0.5158
1377.0,0.5166
1377.5,0.5175
1378.0,0.5183
1378.5,0.5192
1379.0,0.5200
1379.5,0.5210
1380.0,0.5219
1380.5,0.5228
1381.0,0.5237
1381.5,0.5246
1382.0,0.5254
1382.5,0.5263
1383.0,0.5272
1383.5,0.5282
1384.0,0.5292
1384.5,0.5303
1385.0,0.5315
1385.5,0.5329
1386.0,0.5343
1386.5,0.5359
1387.0,0.5373
1387.5,0.5388
1388.0,0.5401
1388.5,0.5414
1389.0,0.5426
1389.5,0.5437
1390.0,0.5448
1390.5,0.5457
1391.0,0.5466
1391.5,0.5474
1392.0,0.5481
1392.5,0.5487
1393.0,0.5492
1393.5,0.5494
1394.0,0.5495
1394.5,0.5496
1395.0,0.5496
1395.5,0.5495
1396.0,0.5494
1396.5,0.5492
1397.0,0.5490
1397.5,0.5489
1398.0,0.5491
1398.5,0.5494
1399.0,0.5500
1399.5,0.5508
1400.0,0.5516
1400.5,0.5525
1401.0,0.5535
1401.5,0.5546
1402.0,0.5557
1402.5,0.5570
1403.0,0.5584
1403.5,0.5599
1404.0,0.5615
1404.5,0.5632
1405.0,0.5650
1405.5,0.5667
1406.0,0.5683
1406.5,0.5699
1407.0,0.5714
1407.5,0.5729
1408.0,0.5746
1408.5,0.5764
1409.0,0.5784
1409.5,0.5807
1410.0,0.5830
1410.5,0.5854
1411.0,0.5879
1411.5,0.5903
1412.0,0.5928
1412.5,0.5951
1413.0,0.5974
1413.5,0.5995
1414.0,0.6015
1414.5,0.6033
1415.0,0.6050
1415.5,0.6066
1416.0,0.6082
1416.5,0.6099
1417.0,0.6117
1417.5,0.6136
1418.0,0.6156
1418.5,0.6177
1419.0,0.6198
1419.5,0.6220
1420.0,0.6242
1420.5,0.6264
1421.0,0.6286
1421.5,0.6307
1422.0,0.6328
1422.5,0.6349
1423.0,0.6370
1423.5,0.6392
1424.0,0.6415
1424.5,0.6438
1425.0,0.6461
1425.5,0.6483
1426.0,0.6505
1426.5,0.6526
1427.0,0.6547
1427.5,0.6568
1428.0,0.6589
1428.5,0.6609
1429.0,0.6629
1429.5,0.6649
1430.0,0.6668
1430.5,0.6687
1431.0,0.6706
1431.5,0.6724
1432.0,0.6742
1432.5,0.6760
1433.0,0.6778
1433.5,0.6796
1434.0,0.6814
1434.5,0.6832
1435.0,0.6849
1435.5,0.6867
1436.0,0.6884
1436.5,0.6901
1437.0,0.6918
1437.5,0.6934
1438.0,0.6949
1438.5,0.6962
1439.0,0.6974
1439.5,0.6984
1440.0,0.6995
1440.5,0.7006
1441.0,0.7017
1441.5,0.7028
1442.0,0.7039
1442.5,0.7051
1443.0,0.7063
1443.5,0.7075
1444.0,0.7087
1444.5,0.7099
1445.0,0.7110
1445.5,0.7120
1446.0,0.7130
1446.5,0.7139
1447.0,0.7148
1447.5,0.7157
1448.0,0.7166
1448.5,0.7175
1449.0,0.7185
1449.5,0.7193
1450.0,0.7201
1450.5,0.7208
1451.0,0.7214
1451.5,0.7218
1452.0,0.7221
1452.5,0.7224
1453.0,0.7228
1453.5,0.7232
1454.0,0.7238
1454.5,0.7245
1455.0,0.7251
1455.5,0.7258
1456.0,0.7263
1456.5,0.7268
1457.0,0.7272
1457.5,0.7275
1458.0,0.7279
1458.5,0.7282
1459.0,0.7286
1459.5,0.7290
1460.0,0.7294
1460.5,0.7298
1461.0,0.7302
1461.5,0.7306
1462.0,0.7310
1462.5,0.7313
1463.0,0.7317
1463.5,0.7322
1464.0,0.7326
1464.5,0.7330
1465.0,0.7334
1465.5,0.7337
1466.0,0.7340
1466.5,0.7341
1467.0,0.7343
1467.5,0.7344
1468.0,0.7345
1468.5,0.7345
1469.0,0.7344
1469.5,0.7342
1470.0,0.7341
1470.5,0.7339
1471.0,0.7338
1471.5,0.7338
1472.0,0.7338
1472.5,0.7338
1473.0,0.7337
1473.5,0.7336
1474.0,0.7335
1474.5,0.7334
1475.0,0.7333
1475.5,0.7332
1476.0,0.7331
1476.5,0.7330
1477.0,0.7330
1477.5,0.7329
1478.0,0.7330
1478.5,0.7331
1479.0,0.7332
1479.5,0.7333
1480.0,0.7334
1480.5,0.7334
1481.0,0.7334
1481.5,0.7333
1482.0,0.7331
1482.5,0.7329
1483.0,0.7327
1483.5,0.7325
1484.0,0.7323
1484.5,0.7322
1485.0,0.7322
1485.5,0.7323
1486.0,0.7325
1486.5,0.7326
1487.0,0.7328
1487.5,0.7329
1488.0,0.7330
1488.5,0.7331
1489.0,0.7330
1489.5,0.7328
1490.0,0.7325
1490.5,0.7321
1491.0,0.7317
1491.5,0.7314
1492.0,0.7311
1492.5,0.7308
1493.0,0.7307
1493.5,0.7305
1494.0,0.7303
1494.5,0.7301
1495.0,0.7298
1495.5,0.7295
1496.0,0.7292
1496.5,0.7290
1497.0,0.7288
1497.5,0.7286
1498.0,0.7284
1498.5,0.7282
1499.0,0.7280
1499.5,0.7277
1500.0,0.7274
1500.5,0.7271
1501.0,0.7268
1501.5,0.7265
1502.0,0.7262
1502.5,0.7259
1503.0,0.7255
1503.5,0.7250
1504.0,0.7245
1504.5,0.7240
1505.0,0.7235
1505.5,0.7231
1506.0,0.7228
1506.5,0.7225
1507.0,0.7222
1507.5,0.7219
1508.0,0.7215
1508.5,0.7211
1509.0,0.7207
1509.5,0.7204
1510.0,0.7201
1510.5,0.7198
1511.0,0.7196
1511.5,0.7193
1512.0,0.7190
1512.5,0.7187
1513.0,0.7183
1513.5,0.7178
1514.0,0.7173
1514.5,0.7169
1515.0,0.7164
1515.5,0.7160
1516.0,0.7156
1516.5,0.7152
1517.0,0.7147
1517.5,0.7142
1518.0,0.7137
1518.5,0.7131
1519.0,0.7125
1519.5,0.7119
1520.0,0.7115
1520.5,0.7111
1521.0,0.7107
1521.5,0.7105
1522.0,0.7102
1522.5,0.7099
1523.0,0.7095
1523.5,0.7091
1524.0,0.7087
1524.5,0.7083
1525.0,0.7080
1525.5,0.7078
1526.0,0.7076
1526.5,0.7074
1527.0,0.7072
1527.5,0.7070
1528.0,0.7067
1528.5,0.7064
1529.0,0.7060
1529.5,0.7056
1530.0,0.7052
1530.5,0.7048
1531.0,0.7044
1531.5,0.7040
1532.0,0.7036
1532.5,0.7033
1533.0,0.7029
1533.5,0.7026
1534.0,0.7024
1534.5,0.7022
1535.0,0.7020
1535.5,0.7019
1536.0,0.7018
1536.5,0.7017
1537.0,0.7017
1537.5,0.7016
1538.0,0.7015
1538.5,0.7014
1539.0,0.7012
1539.5,0.7010
1540.0,0.7007
1540.5,0.7004
1541.0,0.7000
1541.5,0.6996
1542.0,0.6992
1542.5,0.6989
1543.0,0.6985
1543.5,0.6982
1544.0,0.6980
1544.5,0.6978
1545.0,0.6976
1545.5,0.6975
1546.0,0.6974
1546.5,0.6972
1547.0,0.6970
1547.5,0.6968
1548.0,0.6966
1548.5,0.6964
1549.0,0.6962
1549.5,0.6960
1550.0,0.6959
1550.5,0.6959
1551.0,0.6959
1551.5,0.6960
1552.0,0.6961
1552.5,0.6961
1553.0,0.6962
1553.5,0.6962
1554.0,0.6962
1554.5,0.6962
1555.0,0.6962
1555.5,0.6961
1556.0,0.6960
1556.5,0.6958
1557.0,0.6957
1557.5,0.6955
1558.0,0.6955
1558.5,0.6954
1559.0,0.6955
1559.5,0.6956
1560.0,0.6957
1560.5,0.6958
1561.0,0.6959
1561.5,0.6960
1562.0,0.6961
1562.5,0.6962
1563.0,0.6962
1563.5,0.6963
1564.0,0.6964
1564.5,0.6965
1565.0,0.6966
1565.5,0.6966
1566.0,0.6966
1566.5,0.6966
1567.0,0.6965
1567.5,0.6964
1568.0,0.6962
1568.5,0.6961
1569.0,0.6959
1569.5,0.6958
1570.0,0.6956
1570.5,0.6956
1571.0,0.6956
1571.5,0.6956
1572.0,0.6956
1572.5,0.6957
1573.0,0.6957
1573.5,0.6957
1574.0,0.6957
1574.5,0.6956
1575.0,0.6955
1575.5,0.6954
1576.0,0.6953
1576.5,0.6952
1577.0,0.6952
1577.5,0.6951
1578.0,0.6950
1578.5,0.6950
1579.0,0.6949
1579.5,0.6947
1580.0,0.6945
1580.5,0.6942
1581.0,0.6938
1581.5,0.6935
1582.0,0.6932
1582.5,0.6929
1583.0,0.6926
1583.5,0.6924
1584.0,0.6923
1584.5,0.6921
1585.0,0.6919
1585.5,0.6916
1586.0,0.6913
1586.5,0.6911
1587.0,0.6908
1587.5,0.6905
1588.0,0.6902
1588.5,0.6899
1589.0,0.6896
1589.5,0.6893
1590.0,0.6890
1590.5,0.6887
1591.0,0.6884
1591.5,0.6882
1592.0,0.6879
1592.5,0.6877
1593.0,0.6874
1593.5,0.6871
1594.0,0.6867
1594.5,0.6863
1595.0,0.6858
1595.5,0.6852
1596.0,0.6847
1596.5,0.6842
1597.0,0.6836
1597.5,0.6832
1598.0,0.6827
1598.5,0.6823
1599.0,0.6820
1599.5,0.6816
1600.0,0.6813
1600.5,0.6809
1601.0,0.6805
1601.5,0.6800
1602.0,0.6795
1602.5,0.6790
1603.0,0.6785
1603.5,0.6780
1604.0,0.6774
1604.5,0.6769
1605.0,0.6763
1605.5,0.6757
1606.0,0.6752
1606.5,0.6746
1607.0,0.6741
1607.5,0.6736
1608.0,0.6731
1608.5,0.6727
1609.0,0.6723
1609.5,0.6720
1610.0,0.6716
1610.5,0.6713
1611.0,0.6709
1611.5,0.6705
1612.0,0.6701
1612.5,0.6696
1613.0,0.6691
1613.5,0.6685
1614.0,0.6680
1614.5,0.6673
1615.0,0.6667
1615.5,0.6661
1616.0,0.6655
1616.5,0.6650
1617.0,0.6646
1617.5,0.6642
1618.0,0.6638
1618.5,0.6635
1619.0,0.6631
1619.5,0.6628
1620.0,0.6623
1620.5,0.6619
1621.0,0.6614
1621.5,0.6609
1622.0,0.6603
1622.5,0.6598
1623.0,0.6593
1623.5,0.6589
1624.0,0.6584
1624.5,0.6580
1625.0,0.6576
1625.5,0.6572
1626.0,0.6568
1626.5,0.6564
1627.0,0.6560
1627.5,0.6556
1628.0,0.6552
1628.5,0.6548
1629.0,0.6543
1629.5,0.6539
1630.0,0.6534
1630.5,0.6529
1631.0,0.6524
1631.5,0.6520
1632.0,0.6516
1632.5,0.6512
1633.0,0.6508
1633.5,0.6505
1634.0,0.6502
1634.5,0.6498
1635.0,0.6495
1635.5,0.6491
1636.0,0.6487
1636.5,0.6482
1637.0,0.6477
1637.5,0.6473
1638.0,0.6468
1638.5,0.6464
1639.0,0.6460
1639.5,0.6456
1640.0,0.6453
1640.5,0.6451
1641.0,0.6448
1641.5,0.6446
1642.0,0.6444
1642.5,0.6441
1643.0,0.6439
1643.5,0.6436
1644.0,0.6433
1644.5,0.6430
1645.0,0.6427
1645.5,0.6424
1646.0,0.6421
1646.5,0.6417
1647.0,0.6414
1647.5,0.6411
1648.0,0.6407
1648.5,0.6404
1649.0,0.6401
1649.5,0.6399
1650.0,0.6396
1650.5,0.6394
1651.0,0.6392
1651.5,0.6390
1652.0,0.6388
1652.5,0.6386
1653.0,0.6384
1653.5,0.6382
1654.0,0.6381
1654.5,0.6380
1655.0,0.6379
1655.5,0.6379
1656.0,0.6380
1656.5,0.6380
1657.0,0.6381
1657.5,0.6382
1658.0,0.6383
1658.5,0.6384
1659.0,0.6386
1659.5,0.6387
1660.0,0.6389
1660.5,0.6391
1661.0,0.6393
1661.5,0.6395
1662.0,0.6398
1662.5,0.6401
1663.0,0.6404
1663.5,0.6407
1664.0,0.6410
1664.5,0.6413
1665.0,0.6416
1665.5,0.6420
1666.0,0.6424
1666.5,0.6428
1667.0,0.6432
1667.5,0.6436
1668.0,0.6439
1668.5,0.6443
1669.0,0.6446
1669.5,0.6450
1670.0,0.6453
1670.5,0.6456
1671.0,0.6460
1671.5,0.6464
1672.0,0.6468
1672.5,0.6473
1673.0,0.6479
1673.5,0.6485
1674.0,0.6492
1674.5,0.6499
1675.0,0.6507
1675.5,0.6516
1676.0,0.6525
1676.5,0.6535
1677.0,0.6545
1677.5,0.6556
1678.0,0.6566
1678.5,0.6578
1679.0,0.6589
1679.5,0.6601
1680.0,0.6614
1680.5,0.6627
1681.0,0.6640
1681.5,0.6654
1682.0,0.6668
1682.5,0.6683
1683.0,0.6698
1683.5,0.6714
1684.0,0.6731
1684.5,0.6748
1685.0,0.6767
1685.5,0.6787
1686.0,0.6808
1686.5,0.6829
1687.0,0.6852
1687.5,0.6875
1688.0,0.6899
1688.5,0.6923
1689.0,0.6947
1689.5,0.6971
1690.0,0.6995
1690.5,0.7019
1691.0,0.7042
1691.5,0.7064
1692.0,0.7085
1692.5,0.7104
1693.0,0.7122
1693.5,0.7138
1694.0,0.7153
1694.5,0.7167
1695.0,0.7181
1695.5,0.7196
1696.0,0.7211
1696.5,0.7228
1697.0,0.7246
1697.5,0.7266
1698.0,0.7287
1698.5,0.7311
1699.0,0.7335
1699.5,0.7362
1700.0,0.7389
1700.5,0.7418
1701.0,0.7447
1701.5,0.7476
1702.0,0.7505
1702.5,0.7534
1703.0,0.7562
1703.5,0.7589
1704.0,0.7614
1704.5,0.7639
1705.0,0.7662
1705.5,0.7685
1706.0,0.7705
1706.5,0.7725
1707.0,0.7744
1707.5,0.7761
1708.0,0.7778
1708.5,0.7794
1709.0,0.7810
1709.5,0.7825
1710.0,0.7840
1710.5,0.7855
1711.0,0.7870
1711.5,0.7886
1712.0,0.7902
1712.5,0.7918
1713.0,0.7934
1713.5,0.7950
1714.0,0.7966
1714.5,0.7982
1715.0,0.7997
1715.5,0.8013
1716.0,0.8028
1716.5,0.8043
1717.0,0.8058
1717.5,0.8074
1718.0,0.8089
1718.5,0.8104
1719.0,0.8119
1719.5,0.8135
1720.0,0.8151
1720.5,0.8167
1721.0,0.8183
1721.5,0.8200
1722.0,0.8217
1722.5,0.8234
1723.0,0.8250
1723.5,0.8267
1724.0,0.8282
1724.5,0.8296
1725.0,0.8309
1725.5,0.8321
1726.0,0.8331
1726.5,0.8340
1727.0,0.8347
1727.5,0.8353
1728.0,0.8355
1728.5,0.8355
1729.0,0.8352
1729.5,0.8346
1730.0,0.8335
1730.5,0.8321
1731.0,0.8302
1731.5,0.8280
1732.0,0.8254
1732.5,0.8226
1733.0,0.8195
1733.5,0.8162
1734.0,0.8128
1734.5,0.8094
1735.0,0.8060
1735.5,0.8027
1736.0,0.7994
1736.5,0.7963
1737.0,0.7934
1737.5,0.7906
1738.0,0.7880
1738.5,0.7856
1739.0,0.7834
1739.5,0.7814
1740.0,0.7795
1740.5,0.7779
1741.0,0.7764
1741.5,0.7751
1742.0,0.7740
1742.5,0.7730
1743.0,0.7722
1743.5,0.7715
1744.0,0.7710
1744.5,0.7707
1745.0,0.7705
1745.5,0.7705
1746.0,0.7706
1746.5,0.7709
1747.0,0.7713
1747.5,0.7718
1748.0,0.7724
1748.5,0.7730
1749.0,0.7736
1749.5,0.7743
1750.0,0.7749
1750.5,0.7756
1751.0,0.7764
1751.5,0.7771
1752.0,0.7780
1752.5,0.7788
1753.0,0.7798
1753.5,0.7807
1754.0,0.7817
1754.5,0.7827
1755.0,0.7837
1755.5,0.7847
1756.0,0.7856
1756.5,0.7866
1757.0,0.7875
1757.5,0.7884
1758.0,0.7893
1758.5,0.7901
1759.0,0.7908
1759.5,0.7915
1760.0,0.7920
1760.5,0.7925
1761.0,0.7928
1761.5,0.7930
1762.0,0.7929
1762.5,0.7927
1763.0,0.7922
1763.5,0.7915
1764.0,0.7905
1764.5,0.7893
1765.0,0.7879
1765.5,0.7863
1766.0,0.7845
1766.5,0.7827
1767.0,0.7807
1767.5,0.7786
1768.0,0.7766
1768.5,0.7745
1769.0,0.7725
1769.5,0.7705
1770.0,0.7686
1770.5,0.7668
1771.0,0.7651
1771.5,0.7635
1772.0,0.7620
1772.5,0.7606
1773.0,0.7592
1773.5,0.7580
1774.0,0.7568
1774.5,0.7556
1775.0,0.7546
1775.5,0.7535
1776.0,0.7525
1776.5,0.7515
1777.0,0.7505
1777.5,0.7496
1778.0,0.7486
1778.5,0.7477
1779.0,0.7468
1779.5,0.7459
1780.0,0.7450
1780.5,0.7442
1781.0,0.7435
1781.5,0.7427
1782.0,0.7420
1782.5,0.7414
1783.0,0.7407
1783.5,0.7401
1784.0,0.7396
1784.5,0.7391
1785.0,0.7386
1785.5,0.7381
1786.0,0.7377
1786.5,0.7373
1787.0,0.7370
1787.5,0.7366
1788.0,0.7363
1788.5,0.7360
1789.0,0.7357
1789.5,0.7354
1790.0,0.7352
1790.5,0.7349
1791.0,0.7347
1791.5,0.7345
1792.0,0.7344
1792.5,0.7342
1793.0,0.7340
1793.5,0.7338
1794.0,0.7336
1794.5,0.7335
1795.0,0.7333
1795.5,0.7331
1796.0,0.7329
1796.5,0.7328
1797.0,0.7326
1797.5,0.7324
1798.0,0.7323
1798.5,0.7320
1799.0,0.7318
1799.5,0.7316
1800.0,0.7313
1800.5,0.7310
1801.0,0.7306
1801.5,0.7303
1802.0,0.7299
1802.5,0.7296
1803.0,0.7292
1803.5,0.7288
1804.0,0.7284
1804.5,0.7280
1805.0,0.7277
1805.5,0.7273
1806.0,0.7270
1806.5,0.7268
1807.0,0.7265
1807.5,0.7263
1808.0,0.7261
1808.5,0.7259
1809.0,0.7257
1809.5,0.7255
1810.0,0.7253
1810.5,0.7251
1811.0,0.7249
1811.5,0.7247
1812.0,0.7245
1812.5,0.7243
1813.0,0.7241
1813.5,0.7239
1814.0,0.7237
1814.5,0.7234
1815.0,0.7232
1815.5,0.7229
1816.0,0.7226
1816.5,0.7223
1817.0,0.7220
1817.5,0.7218
1818.0,0.7215
1818.5,0.7212
1819.0,0.7209
1819.5,0.7205
1820.0,0.7202
1820.5,0.7198
1821.0,0.7193
1821.5,0.7189
1822.0,0.7184
1822.5,0.7179
1823.0,0.7175
1823.5,0.7170
1824.0,0.7166
1824.5,0.7161
1825.0,0.7157
1825.5,0.7153
1826.0,0.7148
1826.5,0.7144
1827.0,0.7139
1827.5,0.7135
1828.0,0.7130
1828.5,0.7126
1829.0,0.7121
1829.5,0.7116
1830.0,0.7112
1830.5,0.7107
1831.0,0.7102
1831.5,0.7098
1832.0,0.7093
1832.5,0.7089
1833.0,0.7085
1833.5,0.7081
1834.0,0.7077
1834.5,0.7073
1835.0,0.7069
1835.5,0.7065
1836.0,0.7060
1836.5,0.7055
1837.0,0.7051
1837.5,0.7045
1838.0,0.7040
1838.5,0.7035
1839.0,0.7030
1839.5,0.7024
1840.0,0.7019
1840.5,0.7013
1841.0,0.7007
1841.5,0.7001
1842.0,0.6995
1842.5,0.6989
1843.0,0.6983
1843.5,0.6978
1844.0,0.6972
1844.5,0.6967
1845.0,0.6961
1845.5,0.6956
1846.0,0.6950
1846.5,0.6945
1847.0,0.6939
1847.5,0.6933
1848.0,0.6926
1848.5,0.6920
1849.0,0.6914
1849.5,0.6907
1850.0,0.6902
1850.5,0.6896
1851.0,0.6891
1851.5,0.6886
1852.0,0.6882
1852.5,0.6878
1853.0,0.6874
1853.5,0.6870
1854.0,0.6867
1854.5,0.6863
1855.0,0.6859
1855.5,0.6856
1856.0,0.6852
1856.5,0.6849
1857.0,0.6845
1857.5,0.6842
1858.0,0.6839
1858.5,0.6837
1859.0,0.6834
1859.5,0.6831
1860.0,0.6829
1860.5,0.6826
1861.0,0.6824
1861.5,0.6822
1862.0,0.6820
1862.5,0.6818
1863.0,0.6816
1863.5,0.6814
1864.0,0.6813
1864.5,0.6812
1865.0,0.6811
1865.5,0.6811
1866.0,0.6811
1866.5,0.6811
1867.0,0.6811
1867.5,0.6811
1868.0,0.6812
1868.5,0.6812
1869.0,0.6812
1869.5,0.6813
1870.0,0.6814
1870.5,0.6814
1871.0,0.6816
1871.5,0.6817
1872.0,0.6819
1872.5,0.6821
1873.0,0.6823
1873.5,0.6825
1874.0,0.6828
1874.5,0.6831
1875.0,0.6834
1875.5,0.6838
1876.0,0.6841
1876.5,0.6845
1877.0,0.6850
1877.5,0.6855
1878.0,0.6860
1878.5,0.6865
1879.0,0.6871
1879.5,0.6877
1880.0,0.6884
1880.5,0.6891
1881.0,0.6898
1881.5,0.6907
1882.0,0.6915
1882.5,0.6925
1883.0,0.6934
1883.5,0.6945
1884.0,0.6956
1884.5,0.6967
1885.0,0.6979
1885.5,0.6991
1886.0,0.7004
1886.5,0.7018
1887.0,0.7032
1887.5,0.7047
1888.0,0.7063
1888.5,0.7080
1889.0,0.7098
1889.5,0.7116
1890.0,0.7135
1890.5,0.7154
1891.0,0.7174
1891.5,0.7194
1892.0,0.7215
1892.5,0.7236
1893.0,0.7257
1893.5,0.7278
1894.0,0.7300
1894.5,0.7322
1895.0,0.7345
1895.5,0.7369
1896.0,0.7393
1896.5,0.7418
1897.0,0.7444
1897.5,0.7471
1898.0,0.7498
1898.5,0.7526
1899.0,0.7555
1899.5,0.7584
1900.0,0.7614
1900.5,0.7643
1901.0,0.7672
1901.5,0.7702
1902.0,0.7731
1902.5,0.7760
1903.0,0.7790
1903.5,0.7820
1904.0,0.7850
1904.5,0.7880
1905.0,0.7911
1905.5,0.7942
1906.0,0.7972
1906.5,0.8003
1907.0,0.8033
1907.5,0.8063
1908.0,0.8093
1908.5,0.8122
1909.0,0.8151
1909.5,0.8179
1910.0,0.8208
1910.5,0.8236
1911.0,0.8264
1911.5,0.8293
1912.0,0.8322
1912.5,0.8350
1913.0,0.8378
1913.5,0.8406
1914.0,0.8433
1914.5,0.8460
1915.0,0.8486
1915.5,0.8512
1916.0,0.8536
1916.5,0.8561
1917.0,0.8585
1917.5,0.8608
1918.0,0.8632
1918.5,0.8655
1919.0,0.8678
1919.5,0.8700
1920.0,0.8722
1920.5,0.8744
1921.0,0.8765
1921.5,0.8786
1922.0,0.8806
1922.5,0.8825
1923.0,0.8844
1923.5,0.8862
1924.0,0.8879
1924.5,0.8896
1925.0,0.8912
1925.5,0.8927
1926.0,0.8942
1926.5,0.8957
1927.0,0.8971
1927.5,0.8985
1928.0,0.8998
1928.5,0.9011
1929.0,0.9023
1929.5,0.9034
1930.0,0.9044
1930.5,0.9054
1931.0,0.9062
1931.5,0.9070
1932.0,0.9077
1932.5,0.9084
1933.0,0.9090
1933.5,0.9095
1934.0,0.9100
1934.5,0.9104
1935.0,0.9108
1935.5,0.9111
1936.0,0.9114
1936.5,0.9116
1937.0,0.9118
1937.5,0.9119
1938.0,0.9120
1938.5,0.9120
1939.0,0.9121
1939.5,0.9120
1940.0,0.9120
1940.5,0.9118
1941.0,0.9117
1941.5,0.9115
1942.0,0.9112
1942.5,0.9109
1943.0,0.9106
1943.5,0.9102
1944.0,0.9097
1944.5,0.9092
1945.0,0.9087
1945.5,0.9082
1946.0,0.9076
1946.5,0.9070
1947.0,0.9064
1947.5,0.9057
1948.0,0.9050
1948.5,0.9043
1949.0,0.9036
1949.5,0.9029
1950.0,0.9021
1950.5,0.9014
1951.0,0.9006
1951.5,0.8999
1952.0,0.8992
1952.5,0.8985
1953.0,0.8978
1953.5,0.8971
1954.0,0.8964
1954.5,0.8957
1955.0,0.8950
1955.5,0.8942
1956.0,0.8935
1956.5,0.8927
1957.0,0.8919
1957.5,0.8912
1958.0,0.8904
1958.5,0.8896
1959.0,0.8888
1959.5,0.8880
1960.0,0.8873
1960.5,0.8866
1961.0,0.8859
1961.5,0.8851
1962.0,0.8845
1962.5,0.8838
1963.0,0.8831
1963.5,0.8825
1964.0,0.8819
1964.5,0.8813
1965.0,0.8807
1965.5,0.8801
1966.0,0.8795
1966.5,0.8789
1967.0,0.8784
1967.5,0.8778
1968.0,0.8773
1968.5,0.8767
1969.0,0.8762
1969.5,0.8757
1970.0,0.8751
1970.5,0.8746
1971.0,0.8740
1971.5,0.8735
1972.0,0.8729
1972.5,0.8722
1973.0,0.8716
1973.5,0.8710
1974.0,0.8703
1974.5,0.8697
1975.0,0.8690
1975.5,0.8683
1976.0,0.8677
1976.5,0.8670
1977.0,0.8664
1977.5,0.8657
1978.0,0.8651
1978.5,0.8645
1979.0,0.8638
1979.5,0.8632
1980.0,0.8626
1980.5,0.8619
1981.0,0.8613
1981.5,0.8607
1982.0,0.8600
1982.5,0.8594
1983.0,0.8587
1983.5,0.8581
1984.0,0.8574
1984.5,0.8567
1985.0,0.8560
1985.5,0.8554
1986.0,0.8547
1986.5,0.8540
1987.0,0.8533
1987.5,0.8526
1988.0,0.8520
1988.5,0.8514
1989.0,0.8507
1989.5,0.8501
1990.0,0.8495
1990.5,0.8490
1991.0,0.8484
1991.5,0.8478
1992.0,0.8473
1992.5,0.8468
1993.0,0.8462
1993.5,0.8457
1994.0,0.8452
1994.5,0.8447
1995.0,0.8442
1995.5,0.8437
1996.0,0.8432
1996.5,0.8427
1997.0,0.8423
1997.5,0.8418
1998.0,0.8414
1998.5,0.8410
1999.0,0.8407
1999.5,0.8404
2000.0,0.8401
2000.5,0.8399
2001.0,0.8397
2001.5,0.8395
2002.0,0.8394
2002.5,0.8394
2003.0,0.8394
2003.5,0.8394
2004.0,0.8395
2004.5,0.8396
2005.0,0.8397
2005.5,0.8399
2006.0,0.8401
2006.5,0.8403
2007.0,0.8405
2007.5,0.8408
2008.0,0.8410
2008.5,0.8413
2009.0,0.8416
2009.5,0.8420
2010.0,0.8423
2010.5,0.8427
2011.0,0.8431
2011.5,0.8436
2012.0,0.8440
2012.5,0.8445
2013.0,0.8450
2013.5,0.8456
2014.0,0.8462
2014.5,0.8468
2015.0,0.8475
2015.5,0.8483
2016.0,0.8491
2016.5,0.8499
2017.0,0.8508
2017.5,0.8517
2018.0,0.8526
2018.5,0.8536
2019.0,0.8546
2019.5,0.8557
2020.0,0.8568
2020.5,0.8579
2021.0,0.8591
2021.5,0.8603
2022.0,0.8615
2022.5,0.8628
2023.0,0.8641
2023.5,0.8655
2024.0,0.8670
2024.5,0.8685
2025.0,0.8700
2025.5,0.8716
2026.0,0.8732
2026.5,0.8749
2027.0,0.8766
2027.5,0.8784
2028.0,0.8802
2028.5,0.8820
2029.0,0.8838
2029.5,0.8857
2030.0,0.8876
2030.5,0.8895
2031.0,0.8914
2031.5,0.8934
2032.0,0.8953
2032.5,0.8973
2033.0,0.8992
2033.5,0.9012
2034.0,0.9031
2034.5,0.9051
2035.0,0.9071
2035.5,0.9091
2036.0,0.9111
2036.5,0.9131
2037.0,0.9152
2037.5,0.9173
2038.0,0.9194
2038.5,0.9215
2039.0,0.9236
2039.5,0.9258
2040.0,0.9280
2040.5,0.9302
2041.0,0.9325
2041.5,0.9347
2042.0,0.9369
2042.5,0.9390
2043.0,0.9412
2043.5,0.9433
2044.0,0.9454
2044.5,0.9475
2045.0,0.9496
2045.5,0.9516
2046.0,0.9536
2046.5,0.9556
2047.0,0.9576
2047.5,0.9596
2048.0,0.9615
2048.5,0.9635
2049.0,0.9654
2049.5,0.9673
2050.0,0.9692
2050.5,0.9710
2051.0,0.9729
2051.5,0.9746
2052.0,0.9764
2052.5,0.9781
2053.0,0.9798
2053.5,0.9815
2054.0,0.9831
2054.5,0.9847
2055.0,0.9862
2055.5,0.9878
2056.0,0.9892
2056.5,0.9906
2057.0,0.9920
2057.5,0.9933
2058.0,0.9946
2058.5,0.9958
2059.0,0.9970
2059.5,0.9981
2060.0,0.9992
2060.5,1.0003
2061.0,1.0014
2061.5,1.0024
2062.0,1.0034
2062.5,1.0044
2063.0,1.0054
2063.5,1.0064
2064.0,1.0073
2064.5,1.0082
2065.0,1.0091
2065.5,1.0100
2066.0,1.0108
2066.5,1.0116
2067.0,1.0124
2067.5,1.0131
2068.0,1.0139
2068.5,1.0146
2069.0,1.0153
2069.5,1.0159
2070.0,1.0166
2070.5,1.0172
2071.0,1.0178
2071.5,1.0185
2072.0,1.0191
2072.5,1.0197
2073.0,1.0203
2073.5,1.0210
2074.0,1.0216
2074.5,1.0222
2075.0,1.0229
2075.5,1.0235
2076.0,1.0241
2076.5,1.0247
2077.0,1.0253
2077.5,1.0259
2078.0,1.0264
2078.5,1.0269
2079.0,1.0275
2079.5,1.0280
2080.0,1.0285
2080.5,1.0290
2081.0,1.0295
2081.5,1.0300
2082.0,1.0305
2082.5,1.0310
2083.0,1.0315
2083.5,1.0320
2084.0,1.0325
2084.5,1.0330
2085.0,1.0335
2085.5,1.0340
2086.0,1.0345
2086.5,1.0350
2087.0,1.0354
2087.5,1.0359
2088.0,1.0363
2088.5,1.0368
2089.0,1.0372
2089.5,1.0376
2090.0,1.0381
2090.5,1.0385
2091.0,1.0389
2091.5,1.0393
2092.0,1.0397
2092.5,1.0401
2093.0,1.0404
2093.5,1.0408
2094.0,1.0412
2094.5,1.0416
2095.0,1.0420
2095.5,1.0423
2096.0,1.0427
2096.5,1.0431
2097.0,1.0435
2097.5,1.0438
2098.0,1.0442
2098.5,1.0445
2099.0,1.0448
2099.5,1.0451
2100.0,1.0453
2100.5,1.0456
2101.0,1.0458
2101.5,1.0460
2102.0,1.0462
2102.5,1.0464
2103.0,1.0466
2103.5,1.0468
2104.0,1.0469
2104.5,1.0471
2105.0,1.0472
2105.5,1.0473
2106.0,1.0474
2106.5,1.0476
2107.0,1.0476
2107.5,1.0477
2108.0,1.0478
2108.5,1.0479
2109.0,1.0480
2109.5,1.0482
2110.0,1.0483
2110.5,1.0484
2111.0,1.0486
2111.5,1.0487
2112.0,1.0489
2112.5,1.0491
2113.0,1.0492
2113.5,1.0494
2114.0,1.0495
2114.5,1.0497
2115.0,1.0498
2115.5,1.0499
2116.0,1.0500
2116.5,1.0501
2117.0,1.0501
2117.5,1.0502
2118.0,1.0502
2118.5,1.0502
2119.0,1.0502
2119.5,1.0501
2120.0,1.0501
2120.5,1.0500
2121.0,1.0500
2121.5,1.0499
2122.0,1.0499
2122.5,1.0498
2123.0,1.0497
2123.5,1.0497
2124.0,1.0496
2124.5,1.0496
2125.0,1.0495
2125.5,1.0494
2126.0,1.0493
2126.5,1.0492
2127.0,1.0490
2127.5,1.0488
2128.0,1.0486
2128.5,1.0484
2129.0,1.0481
2129.5,1.0478
2130.0,1.0476
2130.5,1.0473
2131.0,1.0470
2131.5,1.0467
2132.0,1.0465
2132.5,1.0463
2133.0,1.0460
2133.5,1.0459
2134.0,1.0457
2134.5,1.0455
2135.0,1.0454
2135.5,1.0453
2136.0,1.0452
2136.5,1.0451
2137.0,1.0450
2137.5,1.0449
2138.0,1.0448
2138.5,1.0448
2139.0,1.0447
2139.5,1.0446
2140.0,1.0445
2140.5,1.0444
2141.0,1.0443
2141.5,1.0441
2142.0,1.0439
2142.5,1.0437
2143.0,1.0435
2143.5,1.0433
2144.0,1.0430
2144.5,1.0427
2145.0,1.0424
2145.5,1.0421
2146.0,1.0418
2146.5,1.0415
2147.0,1.0412
2147.5,1.0408
2148.0,1.0404
2148.5,1.0401
2149.0,1.0397
2149.5,1.0393
2150.0,1.0388
2150.5,1.0384
2151.0,1.0379
2151.5,1.0375
2152.0,1.0370
2152.5,1.0366
2153.0,1.0361
2153.5,1.0357
2154.0,1.0353
2154.5,1.0349
2155.0,1.0346
2155.5,1.0343
2156.0,1.0340
2156.5,1.0338
2157.0,1.0336
2157.5,1.0334
2158.0,1.0332
2158.5,1.0331
2159.0,1.0330
2159.5,1.0328
2160.0,1.0327
2160.5,1.0326
2161.0,1.0324
2161.5,1.0323
2162.0,1.0321
2162.5,1.0319
2163.0,1.0317
2163.5,1.0314
2164.0,1.0312
2164.5,1.0309
2165.0,1.0306
2165.5,1.0304
2166.0,1.0301
2166.5,1.0298
2167.0,1.0295
2167.5,1.0292
2168.0,1.0289
2168.5,1.0286
2169.0,1.0283
2169.5,1.0280
2170.0,1.0276
2170.5,1.0272
2171.0,1.0269
2171.5,1.0264
2172.0,1.0260
2172.5,1.0255
2173.0,1.0250
2173.5,1.0245
2174.0,1.0240
2174.5,1.0235
2175.0,1.0229
2175.5,1.0224
2176.0,1.0218
2176.5,1.0213
2177.0,1.0207
2177.5,1.0201
2178.0,1.0196
2178.5,1.0190
2179.0,1.0184
2179.5,1.0179
2180.0,1.0173
2180.5,1.0167
2181.0,1.0162
2181.5,1.0156
2182.0,1.0151
2182.5,1.0145
2183.0,1.0140
2183.5,1.0134
2184.0,1.0129
2184.5,1.0124
2185.0,1.0119
2185.5,1.0113
2186.0,1.0108
2186.5,1.0103
2187.0,1.0097
2187.5,1.0091
2188.0,1.0086
2188.5,1.0080
2189.0,1.0074
2189.5,1.0068
2190.0,1.0061
2190.5,1.0055
2191.0,1.0049
2191.5,1.0043
2192.0,1.0037
2192.5,1.0031
2193.0,1.0025
2193.5,1.0019
2194.0,1.0013
2194.5,1.0007
2195.0,1.0001
2195.5,0.9995
2196.0,0.9989
2196.5,0.9983
2197.0,0.9978
2197.5,0.9972
2198.0,0.9966
2198.5,0.9960
2199.0,0.9955
2199.5,0.9949
2200.0,0.9943
2200.5,0.9938
2201.0,0.9932
2201.5,0.9927
2202.0,0.9921
2202.5,0.9916
2203.0,0.9910
2203.5,0.9905
2204.0,0.9899
2204.5,0.9894
2205.0,0.9889
2205.5,0.9884
2206.0,0.9878
2206.5,0.9873
2207.0,0.9868
2207.5,0.9864
2208.0,0.9859
2208.5,0.9854
2209.0,0.9850
2209.5,0.9845
2210.0,0.9841
2210.5,0.9836
2211.0,0.9831
2211.5,0.9827
2212.0,0.9822
2212.5,0.9817
2213.0,0.9812
2213.5,0.9808
2214.0,0.9803
2214.5,0.9798
2215.0,0.9793
2215.5,0.9788
2216.0,0.9784
2216.5,0.9779
2217.0,0.9775
2217.5,0.9771
2218.0,0.9767
2218.5,0.9764
2219.0,0.9760
2219.5,0.9757
2220.0,0.9754
2220.5,0.9752
2221.0,0.9749
2221.5,0.9747
2222.0,0.9745
2222.5,0.9744
2223.0,0.9742
2223.5,0.9741
2224.0,0.9740
2224.5,0.9739
2225.0,0.9739
2225.5,0.9739
2226.0,0.9739
2226.5,0.9739
2227.0,0.9740
2227.5,0.9741
2228.0,0.9742
2228.5,0.9743
2229.0,0.9745
2229.5,0.9747
2230.0,0.9750
2230.5,0.9753
2231.0,0.9756
2231.5,0.9760
2232.0,0.9765
2232.5,0.9770
2233.0,0.9775
2233.5,0.9782
2234.0,0.9788
2234.5,0.9796
2235.0,0.9804
2235.5,0.9813
2236.0,0.9823
2236.5,0.9833
2237.0,0.9844
2237.5,0.9856
2238.0,0.9869
2238.5,0.9882
2239.0,0.9895
2239.5,0.9910
2240.0,0.9925
2240.5,0.9941
2241.0,0.9957
2241.5,0.9974
2242.0,0.9992
2242.5,1.0011
2243.0,1.0030
2243.5,1.0050
2244.0,1.0070
2244.5,1.0092
2245.0,1.0114
2245.5,1.0136
2246.0,1.0159
2246.5,1.0183
2247.0,1.0208
2247.5,1.0233
2248.0,1.0259
2248.5,1.0285
2249.0,1.0312
2249.5,1.0339
2250.0,1.0367
2250.5,1.0396
2251.0,1.0424
2251.5,1.0453
2252.0,1.0483
2252.5,1.0513
2253.0,1.0543
2253.5,1.0573
2254.0,1.0604
2254.5,1.0634
2255.0,1.0665
2255.5,1.0696
2256.0,1.0727
2256.5,1.0757
2257.0,1.0788
2257.5,1.0819
2258.0,1.0849
2258.5,1.0880
2259.0,1.0910
2259.5,1.0941
2260.0,1.0971
2260.5,1.1001
2261.0,1.1031
2261.5,1.1061
2262.0,1.1090
2262.5,1.1120
2263.0,1.1149
2263.5,1.1178
2264.0,1.1207
2264.5,1.1236
2265.0,1.1265
2265.5,1.1293
2266.0,1.1321
2266.5,1.1349
2267.0,1.1377
2267.5,1.1405
2268.0,1.1432
2268.5,1.1459
2269.0,1.1486
2269.5,1.1512
2270.0,1.1537
2270.5,1.1562
2271.0,1.1587
2271.5,1.1610
2272.0,1.1633
2272.5,1.1654
2273.0,1.1675
2273.5,1.1695
2274.0,1.1714
2274.5,1.1732
2275.0,1.1749
2275.5,1.1766
2276.0,1.1781
2276.5,1.1797
2277.0,1.1812
2277.5,1.1826
2278.0,1.1841
2278.5,1.1855
2279.0,1.1869
2279.5,1.1883
2280.0,1.1897
2280.5,1.1911
2281.0,1.1926
2281.5,1.1940
2282.0,1.1954
2282.5,1.1969
2283.0,1.1983
2283.5,1.1998
2284.0,1.2013
2284.5,1.2029
2285.0,1.2044
2285.5,1.2060
2286.0,1.2076
2286.5,1.2093
2287.0,1.2110
2287.5,1.2128
2288.0,1.2146
2288.5,1.2164
2289.0,1.2183
2289.5,1.2204
2290.0,1.2224
2290.5,1.2246
2291.0,1.2268
2291.5,1.2292
2292.0,1.2317
2292.5,1.2342
2293.0,1.2369
2293.5,1.2398
2294.0,1.2427
2294.5,1.2458
2295.0,1.2490
2295.5,1.2524
2296.0,1.2559
2296.5,1.2595
2297.0,1.2632
2297.5,1.2670
2298.0,1.2708
2298.5,1.2748
2299.0,1.2788
2299.5,1.2829
2300.0,1.2870
2300.5,1.2911
2301.0,1.2952
2301.5,1.2993
2302.0,1.3033
2302.5,1.3073
2303.0,1.3112
2303.5,1.3149
2304.0,1.3185
2304.5,1.3219
2305.0,1.3250
2305.5,1.3279
2306.0,1.3304
2306.5,1.3326
2307.0,1.3343
2307.5,1.3356
2308.0,1.3365
2308.5,1.3368
2309.0,1.3366
2309.5,1.3359
2310.0,1.3346
2310.5,1.3329
2311.0,1.3306
2311.5,1.3279
2312.0,1.3247
2312.5,1.3211
2313.0,1.3173
2313.5,1.3131
2314.0,1.3088
2314.5,1.3043
2315.0,1.2997
2315.5,1.2951
2316.0,1.2906
2316.5,1.2861
2317.0,1.2818
2317.5,1.2776
2318.0,1.2736
2318.5,1.2699
2319.0,1.2664
2319.5,1.2632
2320.0,1.2602
2320.5,1.2575
2321.0,1.2551
2321.5,1.2528
2322.0,1.2509
2322.5,1.2491
2323.0,1.2476
2323.5,1.2462
2324.0,1.2451
2324.5,1.2440
2325.0,1.2432
2325.5,1.2425
2326.0,1.2419
2326.5,1.2415
2327.0,1.2412
2327.5,1.2410
2328.0,1.2409
2328.5,1.2409
2329.0,1.2410
2329.5,1.2412
2330.0,1.2416
2330.5,1.2420
2331.0,1.2426
2331.5,1.2433
2332.0,1.2441
2332.5,1.2450
2333.0,1.2461
2333.5,1.2473
2334.0,1.2486
2334.5,1.2502
2335.0,1.2518
2335.5,1.2537
2336.0,1.2557
2336.5,1.2579
2337.0,1.2602
2337.5,1.2628
2338.0,1.2654
2338.5,1.2682
2339.0,1.2712
2339.5,1.2743
2340.0,1.2774
2340.5,1.2807
2341.0,1.2839
2341.5,1.2872
2342.0,1.2905
2342.5,1.2938
2343.0,1.2969
2343.5,1.2999
2344.0,1.3028
2344.5,1.3055
2345.0,1.3079
2345.5,1.3100
2346.0,1.3117
2346.5,1.3131
2347.0,1.3141
2347.5,1.3147
2348.0,1.3148
2348.5,1.3144
2349.0,1.3136
2349.5,1.3123
2350.0,1.3106
2350.5,1.3085
2351.0,1.3061
2351.5,1.3033
2352.0,1.3003
2352.5,1.2970
2353.0,1.2937
2353.5,1.2903
2354.0,1.2868
2354.5,1.2834
2355.0,1.2800
2355.5,1.2768
2356.0,1.2738
2356.5,1.2709
2357.0,1.2683
2357.5,1.2659
2358.0,1.2637
2358.5,1.2617
2359.0,1.2600
2359.5,1.2586
2360.0,1.2573
2360.5,1.2563
2361.0,1.2555
2361.5,1.2549
2362.0,1.2544
2362.5,1.2541
2363.0,1.2540
2363.5,1.2539
2364.0,1.2540
2364.5,1.2541
2365.0,1.2542
2365.5,1.2544
2366.0,1.2546
2366.5,1.2548
2367.0,1.2550
2367.5,1.2552
2368.0,1.2554
2368.5,1.2555
2369.0,1.2555
2369.5,1.2556
2370.0,1.2556
2370.5,1.2556
2371.0,1.2555
2371.5,1.2555
2372.0,1.2554
2372.5,1.2553
2373.0,1.2553
2373.5,1.2552
2374.0,1.2552
2374.5,1.2552
2375.0,1.2552
2375.5,1.2553
2376.0,1.2554
2376.5,1.2555
2377.0,1.2556
2377.5,1.2557
2378.0,1.2559
2378.5,1.2561
2379.0,1.2563
2379.5,1.2565
2380.0,1.2567
2380.5,1.2569
2381.0,1.2571
2381.5,1.2573
2382.0,1.2574
2382.5,1.2576
2383.0,1.2578
2383.5,1.2579
2384.0,1.2581
2384.5,1.2582
2385.0,1.2583
2385.5,1.2583
2386.0,1.2584
2386.5,1.2584
2387.0,1.2584
2387.5,1.2583
2388.0,1.2583
2388.5,1.2582
2389.0,1.2582
2389.5,1.2581
2390.0,1.2580
2390.5,1.2580
2391.0,1.2580
2391.5,1.2580
2392.0,1.2580
2392.5,1.2580
2393.0,1.2580
2393.5,1.2581
2394.0,1.2582
2394.5,1.2583
2395.0,1.2585
2395.5,1.2586
2396.0,1.2588
2396.5,1.2590
2397.0,1.2592
2397.5,1.2594
2398.0,1.2596
2398.5,1.2598
2399.0,1.2601
2399.5,1.2604
2400.0,1.2606
2400.5,1.2609
2401.0,1.2613
2401.5,1.2616
2402.0,1.2620
2402.5,1.2624
2403.0,1.2627
2403.5,1.2632
2404.0,1.2636
2404.5,1.2640
2405.0,1.2645
2405.5,1.2649
2406.0,1.2654
2406.5,1.2658
2407.0,1.2662
2407.5,1.2667
2408.0,1.2671
2408.5,1.2675
2409.0,1.2680
2409.5,1.2684
2410.0,1.2688
2410.5,1.2692
2411.0,1.2696
2411.5,1.2699
2412.0,1.2703
2412.5,1.2707
2413.0,1.2711
2413.5,1.2714
2414.0,1.2718
2414.5,1.2722
2415.0,1.2725
2415.5,1.2729
2416.0,1.2733
2416.5,1.2737
2417.0,1.2741
2417.5,1.2745
2418.0,1.2750
2418.5,1.2754
2419.0,1.2759
2419.5,1.2764
2420.0,1.2769
2420.5,1.2775
2421.0,1.2780
2421.5,1.2786
2422.0,1.2792
2422.5,1.2799
2423.0,1.2805
2423.5,1.2812
2424.0,1.2819
2424.5,1.2827
2425.0,1.2834
2425.5,1.2842
2426.0,1.2851
2426.5,1.2859
2427.0,1.2868
2427.5,1.2878
2428.0,1.2887
2428.5,1.2897
2429.0,1.2907
2429.5,1.2917
2430.0,1.2927
2430.5,1.2938
2431.0,1.2948
2431.5,1.2958
2432.0,1.2968
2432.5,1.2978
2433.0,1.2988
2433.5,1.2998
2434.0,1.3007
2434.5,1.3017
2435.0,1.3026
2435.5,1.3035
2436.0,1.3044
2436.5,1.3053
2437.0,1.3062
2437.5,1.3071
2438.0,1.3081
2438.5,1.3090
2439.0,1.3099
2439.5,1.3108
2440.0,1.3118
2440.5,1.3127
2441.0,1.3137
2441.5,1.3146
2442.0,1.3156
2442.5,1.3165
2443.0,1.3175
2443.5,1.3185
2444.0,1.3195
2444.5,1.3205
2445.0,1.3216
2445.5,1.3226
2446.0,1.3237
2446.5,1.3248
2447.0,1.3259
2447.5,1.3270
2448.0,1.3282
2448.5,1.3293
2449.0,1.3305
2449.5,1.3317
2450.0,1.3329
2450.5,1.3341
2451.0,1.3354
2451.5,1.3366
2452.0,1.3378
2452.5,1.3391
2453.0,1.3403
2453.5,1.3416
2454.0,1.3428
2454.5,1.3441
2455.0,1.3454
2455.5,1.3466
2456.0,1.3479
2456.5,1.3492
2457.0,1.3505
2457.5,1.3518
2458.0,1.3531
2458.5,1.3543
2459.0,1.3556
2459.5,1.3568
2460.0,1.3580
2460.5,1.3591
2461.0,1.3602
2461.5,1.3613
2462.0,1.3623
2462.5,1.3632
2463.0,1.3642
2463.5,1.3651
2464.0,1.3659
2464.5,1.3668
2465.0,1.3676
2465.5,1.3684
2466.0,1.3691
2466.5,1.3699
2467.0,1.3706
2467.5,1.3714
2468.0,1.3721
2468.5,1.3728
2469.0,1.3735
2469.5,1.3742
2470.0,1.3749
2470.5,1.3756
2471.0,1.3763
2471.5,1.3769
2472.0,1.3776
2472.5,1.3782
2473.0,1.3788
2473.5,1.3794
2474.0,1.3800
2474.5,1.3806
2475.0,1.3812
2475.5,1.3818
2476.0,1.3824
2476.5,1.3830
2477.0,1.3837
2477.5,1.3843
2478.0,1.3849
2478.5,1.3855
2479.0,1.3861
2479.5,1.3868
2480.0,1.3874
2480.5,1.3880
2481.0,1.3886
2481.5,1.3892
2482.0,1.3898
2482.5,1.3903
2483.0,1.3909
2483.5,1.3914
2484.0,1.3919
2484.5,1.3924
2485.0,1.3928
2485.5,1.3932
2486.0,1.3936
2486.5,1.3939
2487.0,1.3942
2487.5,1.3944
2488.0,1.3946
2488.5,1.3947
2489.0,1.3948
2489.5,1.3948
2490.0,1.3948
2490.5,1.3947
2491.0,1.3946
2491.5,1.3945
2492.0,1.3943
2492.5,1.3941
2493.0,1.3939
2493.5,1.3938
2494.0,1.3936
2494.5,1.3934
2495.0,1.3932
2495.5,1.3931
2496.0,1.3930
2496.5,1.3928
2497.0,1.3927
2497.5,1.3926
2498.0,1.3924
2498.5,1.3923
2499.0,1.3921
2499.5,1.3920
2500.0,1.3918
